Year,DayOfYear,T2M,WS2M,PRECTOTCORR,RH2M,ALLSKY_SFC_SW_DWN,T2M_MIN,T2M_MAX,PS
2020,1,23.33,2.16,0.05,76.62,12.02,18.43,29.75,93.3
2020,2,23.86,1.98,0.0,74.69,14.78,19.12,30.41,93.4
2020,3,24.19,1.58,0.0,73.94,18.09,18.93,31.1,93.32
2020,4,24.87,1.02,0.0,73.06,17.15,19.84,31.4,93.15
2020,5,24.57,1.86,0.0,74.69,16.97,20.25,30.94,93.13
2020,6,23.9,2.9,0.07,73.88,13.93,19.93,30.0,93.31
2020,7,22.88,2.59,0.02,72.19,17.87,17.71,30.15,93.32
2020,8,22.74,1.67,0.0,69.44,20.64,17.3,30.51,93.25
2020,9,22.88,1.54,0.0,70.31,19.45,17.16,31.1,93.23
2020,10,22.27,2.66,0.0,72.62,20.15,16.87,30.02,93.24
2020,11,21.59,2.51,0.0,65.12,21.93,16.23,30.11,93.32
2020,12,21.73,2.34,0.0,70.25,19.69,16.05,29.96,93.26
2020,13,22.35,1.23,0.0,70.25,18.82,16.59,30.59,93.13
2020,14,21.83,1.62,0.0,65.69,20.88,15.44,30.78,93.11
2020,15,20.78,2.02,0.0,62.69,21.81,14.59,30.34,93.16
2020,16,20.75,1.82,0.0,66.69,21.65,13.98,29.81,93.17
2020,17,21.98,1.98,0.0,68.5,21.25,15.44,30.74,93.18
2020,18,23.71,2.91,0.31,73.75,15.66,18.05,31.23,93.18
2020,19,23.86,2.36,0.15,71.5,18.42,19.04,30.8,93.22
2020,20,23.54,2.38,0.0,63.69,21.39,18.24,31.8,93.31
2020,21,22.33,2.46,0.0,62.38,22.33,15.73,31.49,93.38
2020,22,22.46,2.88,0.0,66.81,22.28,15.33,31.44,93.4
2020,23,23.13,2.84,0.0,66.12,21.96,16.9,31.69,93.34
2020,24,22.49,2.35,0.0,58.25,22.77,16.09,32.03,93.33
2020,25,21.69,1.83,0.0,51.69,23.39,13.61,32.26,93.33
2020,26,22.34,1.66,0.0,57.12,23.09,13.68,33.03,93.23
2020,27,23.19,1.72,0.0,56.31,22.2,15.56,33.06,93.2
2020,28,24.21,1.83,0.0,55.88,21.37,17.55,32.8,93.2
2020,29,24.15,1.68,0.0,59.19,22.47,17.05,33.26,93.28
2020,30,24.55,1.3,0.0,57.5,22.65,17.12,34.02,93.22
2020,31,24.47,1.85,0.0,57.19,22.82,16.81,33.4,93.12
2020,32,24.22,2.84,0.0,62.69,21.27,18.48,31.36,93.19
2020,33,23.98,2.91,0.0,59.69,21.71,18.37,31.94,93.36
2020,34,23.76,2.45,0.0,58.5,23.13,17.12,32.54,93.35
2020,35,23.9,2.37,0.0,59.56,22.86,17.36,32.4,93.21
2020,36,24.23,2.2,0.07,59.19,19.63,17.17,32.73,93.24
2020,37,24.61,1.84,0.0,53.94,20.48,16.78,33.53,93.23
2020,38,24.9,2.25,0.0,58.69,19.22,17.19,33.25,93.27
2020,39,26.03,1.93,0.0,52.25,21.15,19.11,33.55,93.26
2020,40,25.07,3.2,0.04,58.5,19.68,19.15,32.09,93.31
2020,41,25.18,3.48,0.02,57.38,20.95,19.07,33.1,93.29
2020,42,24.7,3.68,0.0,55.81,23.51,18.43,33.01,93.33
2020,43,24.14,2.96,0.0,53.5,20.71,16.5,33.01,93.47
2020,44,24.63,2.32,0.0,50.06,23.55,15.37,34.64,93.39
2020,45,25.23,1.23,0.0,49.94,23.36,16.73,35.06,93.19
2020,46,25.7,1.42,0.0,42.75,23.69,16.9,36.12,93.19
2020,47,24.65,2.38,0.0,40.19,24.38,15.28,35.18,93.3
2020,48,23.64,2.34,0.0,39.62,25.22,14.23,35.0,93.35
2020,49,24.26,2.6,0.0,48.19,25.26,14.45,35.05,93.32
2020,50,24.43,2.29,0.0,53.88,23.5,16.29,33.85,93.27
2020,51,24.43,2.82,0.0,48.75,24.99,17.03,34.69,93.25
2020,52,24.34,2.67,0.0,47.12,25.51,15.49,35.31,93.36
2020,53,25.08,3.04,0.0,54.88,24.71,16.15,35.22,93.45
2020,54,25.74,2.95,0.0,50.56,22.05,18.68,35.03,93.36
2020,55,26.03,2.88,0.0,50.88,18.94,18.97,35.07,93.17
2020,56,26.43,1.91,0.0,51.06,24.44,18.94,35.57,93.08
2020,57,27.07,2.63,0.0,52.81,22.58,19.97,35.31,93.11
2020,58,26.83,2.55,0.0,53.88,19.38,20.62,33.43,93.14
2020,59,26.98,3.08,0.0,53.0,19.64,20.97,34.5,93.05
2020,60,27.27,2.6,0.0,50.31,22.14,20.37,35.19,93.02
2020,61,27.52,2.52,0.13,51.0,22.15,20.7,35.3,93.08
2020,62,25.46,1.88,0.31,56.75,15.1,21.01,31.3,93.17
2020,63,27.82,1.5,0.03,49.38,20.47,20.15,35.45,93.13
2020,64,28.1,1.43,0.06,51.81,19.23,22.88,34.19,93.05
2020,65,28.05,2.8,0.19,51.0,20.8,21.99,34.14,92.98
2020,66,27.8,2.38,0.53,53.94,19.94,22.78,35.12,93.01
2020,67,26.92,2.33,0.93,59.62,18.26,22.13,33.8,93.13
2020,68,28.28,2.55,0.07,54.56,20.98,22.3,34.98,93.11
2020,69,28.56,2.44,0.02,50.06,20.39,21.66,35.9,93.02
2020,70,28.35,2.56,0.0,41.25,23.53,19.92,37.05,93.04
2020,71,27.94,2.29,0.0,45.0,23.94,19.6,36.59,93.06
2020,72,27.77,2.33,0.0,40.12,24.52,19.63,36.58,93.16
2020,73,27.33,2.52,0.0,38.75,25.79,18.51,36.54,93.18
2020,74,27.69,2.55,0.0,46.19,26.1,18.58,37.26,93.07
2020,75,28.32,2.92,0.0,48.69,25.69,20.55,37.9,93.03
2020,76,28.46,2.99,0.0,47.38,25.27,20.94,37.61,93.15
2020,77,27.77,3.21,0.0,46.0,26.62,19.67,36.87,93.28
2020,78,27.46,2.58,0.0,40.56,26.81,17.69,37.19,93.25
2020,79,28.36,1.7,0.0,35.88,26.11,19.78,37.62,93.15
2020,80,28.34,1.62,1.39,42.56,20.07,20.83,36.05,93.13
2020,81,29.45,1.38,0.09,43.0,23.79,22.14,37.12,93.08
2020,82,29.97,1.82,0.0,38.81,23.56,22.3,36.76,93.08
2020,83,29.58,2.46,1.95,41.69,18.7,23.99,35.73,93.04
2020,84,29.25,2.66,0.06,38.44,23.99,22.2,37.34,92.91
2020,85,28.3,2.73,0.0,45.75,21.6,20.2,36.32,92.94
2020,86,28.26,2.95,0.0,44.94,24.18,19.91,37.19,92.98
2020,87,27.84,2.7,0.0,47.19,25.52,19.94,36.74,93.17
2020,88,27.91,2.3,0.0,37.81,26.16,19.13,37.73,93.08
2020,89,27.8,2.28,0.0,36.25,26.81,18.16,37.61,93.0
2020,90,28.2,2.72,0.0,32.81,27.29,19.31,38.19,93.04
2020,91,28.28,2.57,0.0,36.12,27.04,19.35,37.94,93.1
2020,92,28.76,2.54,0.0,38.94,27.53,19.67,38.15,93.05
2020,93,29.71,2.45,0.0,38.25,26.14,21.1,38.37,92.95
2020,94,29.37,2.7,0.0,40.12,26.26,21.18,38.08,93.0
2020,95,28.82,2.27,0.0,42.38,27.36,19.14,38.51,93.08
2020,96,29.98,2.9,0.26,49.25,25.84,21.92,38.37,93.14
2020,97,29.33,1.55,2.82,53.0,21.23,23.7,35.28,93.16
2020,98,25.25,1.31,5.85,63.44,15.32,23.38,27.76,93.17
2020,99,28.08,0.88,1.65,53.75,21.73,20.39,35.08,93.1
2020,100,27.51,2.22,9.71,61.81,22.75,22.89,33.42,93.09
2020,101,27.33,2.3,0.2,56.62,21.32,20.76,34.83,93.14
2020,102,27.19,2.47,0.0,55.44,25.17,20.53,35.25,93.24
2020,103,27.75,2.26,0.0,48.06,25.99,20.34,36.01,93.19
2020,104,28.48,2.67,0.0,42.5,26.82,20.81,37.03,93.04
2020,105,28.27,3.04,0.0,38.25,27.45,19.05,37.76,93.07
2020,106,28.08,2.11,0.0,41.62,27.77,18.75,37.65,93.15
2020,107,28.98,2.41,0.0,45.56,26.6,19.93,37.65,93.03
2020,108,30.04,2.72,0.0,46.94,25.38,21.82,38.33,92.96
2020,109,30.39,3.07,0.0,46.25,24.0,22.65,38.37,93.0
2020,110,30.14,3.36,0.0,47.5,25.03,22.97,38.08,92.97
2020,111,29.55,2.92,0.0,46.62,27.06,21.42,38.08,92.98
2020,112,29.61,1.91,0.0,41.56,27.04,20.03,38.78,92.99
2020,113,30.93,2.32,0.0,44.12,23.98,22.65,37.89,92.94
2020,114,30.77,1.77,0.73,47.81,23.44,25.5,36.86,92.93
2020,115,29.65,1.81,1.81,54.38,18.48,24.37,35.87,92.91
2020,116,29.01,1.71,0.45,58.44,19.63,25.22,34.87,92.91
2020,117,28.93,3.16,2.04,57.19,20.11,24.3,36.44,92.97
2020,118,28.03,1.55,0.81,60.94,19.72,23.72,33.99,93.06
2020,119,27.05,2.07,14.33,71.5,20.67,22.98,33.31,93.02
2020,120,24.04,1.81,8.9,81.0,10.95,21.97,26.56,93.07
2020,121,27.92,1.49,0.07,60.25,24.75,20.76,35.62,93.03
2020,122,28.96,1.35,1.18,58.38,23.44,22.06,36.12,92.98
2020,123,29.87,1.28,0.16,56.5,21.6,23.23,36.94,92.85
2020,124,29.72,1.84,0.19,53.31,22.93,23.37,36.51,92.84
2020,125,30.28,2.06,0.05,48.12,25.13,23.54,37.96,92.94
2020,126,30.7,2.25,0.0,46.62,25.12,24.87,37.79,92.89
2020,127,29.82,1.78,0.16,51.44,21.6,23.97,35.76,92.85
2020,128,29.91,1.08,0.18,53.75,20.59,24.75,35.74,92.9
2020,129,30.02,1.86,0.05,52.75,21.56,24.01,36.05,92.88
2020,130,31.09,2.79,0.0,45.31,25.97,24.15,38.56,92.87
2020,131,30.41,2.83,0.0,46.12,24.51,24.13,36.87,92.92
2020,132,29.85,2.83,0.0,48.0,21.29,23.49,37.11,92.92
2020,133,28.34,2.19,0.0,51.81,22.55,24.33,33.29,92.92
2020,134,30.21,1.84,0.01,35.81,22.17,22.11,38.4,92.79
2020,135,30.49,1.86,0.01,44.31,23.54,25.1,35.9,92.73
2020,136,30.85,2.01,0.01,39.25,22.69,24.87,38.94,92.62
2020,137,31.53,2.22,0.03,39.56,18.6,24.1,38.76,92.54
2020,138,29.57,2.24,2.37,53.06,19.35,25.3,34.84,92.53
2020,139,27.03,5.29,1.6,65.44,18.17,22.65,32.15,92.5
2020,140,28.4,5.23,0.04,59.94,19.73,23.19,34.57,92.45
2020,141,29.3,4.23,0.0,56.69,21.92,22.66,37.4,92.5
2020,142,29.37,3.1,0.9,52.56,23.91,22.89,37.39,92.65
2020,143,30.08,3.15,0.01,47.25,23.07,22.03,38.96,92.64
2020,144,31.93,1.52,0.0,41.31,22.11,23.23,39.62,92.65
2020,145,31.88,2.1,3.6,45.38,23.65,26.54,37.62,92.72
2020,146,29.48,1.7,2.97,60.81,23.72,24.9,34.98,92.83
2020,147,28.85,1.8,3.55,65.88,23.78,23.74,34.51,92.84
2020,148,27.94,2.18,6.3,72.81,21.52,23.62,32.93,92.84
2020,149,27.69,1.87,9.12,72.06,23.9,23.37,32.47,92.77
2020,150,25.92,2.45,14.28,75.94,24.56,22.76,30.36,92.83
2020,151,26.8,1.27,1.16,69.94,19.96,22.19,32.33,92.82
2020,152,27.53,1.88,0.29,67.94,22.01,23.14,32.72,92.83
2020,153,25.93,2.03,1.57,76.12,20.57,22.8,30.08,92.93
2020,154,25.97,2.33,0.71,71.0,20.15,22.31,31.05,92.87
2020,155,25.08,2.57,0.03,76.12,19.51,22.3,28.95,92.84
2020,156,24.75,2.94,0.01,77.31,19.96,21.9,28.72,92.86
2020,157,25.83,2.75,1.42,72.75,21.71,21.14,31.46,92.88
2020,158,25.18,2.98,2.71,74.31,21.51,20.85,31.29,92.84
2020,159,26.57,3.67,0.26,67.12,19.8,20.9,34.17,92.78
2020,160,26.27,3.88,0.08,62.88,23.33,21.72,32.64,92.76
2020,161,26.37,3.75,0.0,60.44,21.74,20.23,33.42,92.75
2020,162,26.49,4.52,0.38,66.94,19.05,21.26,33.69,92.62
2020,163,25.02,4.67,2.06,73.19,15.12,21.49,30.37,92.51
2020,164,24.85,5.44,4.07,68.44,15.52,20.52,30.65,92.49
2020,165,25.75,5.04,0.47,64.25,18.24,20.34,32.8,92.58
2020,166,25.4,5.66,0.09,66.31,19.51,20.81,31.51,92.7
2020,167,26.87,4.68,0.25,65.88,20.47,21.57,33.93,92.6
2020,168,26.42,4.19,0.02,69.25,18.59,22.25,32.27,92.57
2020,169,25.73,3.87,0.19,71.75,15.02,22.44,30.65,92.62
2020,170,25.62,4.29,0.27,68.38,14.94,21.16,32.15,92.77
2020,171,26.08,3.86,0.03,66.19,20.28,20.94,32.37,92.8
2020,172,25.51,3.95,0.12,66.12,20.16,21.21,31.32,92.8
2020,173,26.23,3.88,1.51,66.5,20.39,20.9,33.22,92.68
2020,174,25.84,4.43,0.83,64.56,20.86,21.3,32.4,92.6
2020,175,25.04,3.54,4.13,62.81,22.28,19.98,31.17,92.71
2020,176,25.55,2.83,13.06,69.31,22.74,20.34,32.44,92.72
2020,177,23.76,1.58,35.67,82.44,20.43,21.19,27.91,92.62
2020,178,25.27,1.61,5.17,76.81,19.08,21.28,30.44,92.57
2020,179,25.31,2.2,26.93,78.38,19.88,21.61,29.62,92.62
2020,180,24.96,2.73,10.52,83.62,17.21,21.53,29.18,92.62
2020,181,24.5,2.35,3.98,84.75,16.62,21.59,27.83,92.56
2020,182,24.74,2.85,4.13,81.06,19.88,21.33,30.11,92.51
2020,183,24.49,3.48,0.02,75.38,17.97,21.05,29.79,92.66
2020,184,23.12,4.08,4.0,80.12,13.98,20.12,27.31,92.7
2020,185,23.24,3.98,12.85,82.69,17.89,19.61,27.79,92.66
2020,186,24.08,4.79,3.84,76.38,16.06,20.03,29.14,92.63
2020,187,23.21,4.09,1.27,77.62,14.45,19.76,28.54,92.65
2020,188,23.97,3.59,0.33,77.88,15.46,19.37,29.44,92.63
2020,189,23.96,3.62,1.07,78.31,19.01,20.56,29.12,92.73
2020,190,23.58,2.24,7.23,84.62,16.8,21.23,26.76,92.79
2020,191,23.25,2.2,21.56,84.56,20.73,20.24,26.34,92.72
2020,192,24.03,2.36,9.64,79.62,15.87,19.7,28.97,92.77
2020,193,23.97,2.06,0.77,80.88,20.82,21.04,27.98,92.77
2020,194,24.61,2.68,1.38,80.12,21.95,20.63,29.41,92.67
2020,195,23.7,2.52,0.44,82.31,18.76,20.86,27.19,92.63
2020,196,23.69,2.72,0.12,84.12,14.48,20.58,27.05,92.63
2020,197,23.73,3.42,6.53,82.56,12.6,20.62,28.15,92.58
2020,198,23.62,3.32,7.29,82.38,12.66,19.98,28.34,92.53
2020,199,23.42,2.88,0.66,81.88,12.81,20.4,27.42,92.56
2020,200,24.23,2.0,3.5,80.62,16.51,20.08,29.51,92.64
2020,201,24.3,1.73,12.02,80.75,18.57,20.68,28.46,92.7
2020,202,24.12,2.1,11.51,85.31,19.64,21.38,27.96,92.58
2020,203,24.41,1.33,0.49,80.12,24.31,20.58,28.96,92.64
2020,204,24.4,1.73,1.99,81.81,20.87,20.81,28.73,92.69
2020,205,23.59,0.98,15.03,88.25,19.36,21.42,25.81,92.64
2020,206,23.94,1.59,7.79,83.62,14.33,20.71,27.68,92.74
2020,207,23.28,1.44,9.11,83.0,19.62,20.15,27.48,92.83
2020,208,23.14,2.77,0.25,82.81,18.89,20.08,27.21,92.97
2020,209,23.89,2.94,2.1,80.44,21.11,19.65,28.65,92.85
2020,210,24.26,2.59,8.8,82.75,20.75,20.51,29.15,92.68
2020,211,22.56,2.45,9.72,90.06,12.04,21.12,24.69,92.57
2020,212,23.49,2.59,2.67,87.5,18.99,20.73,26.94,92.59
2020,213,24.13,2.01,1.82,83.25,18.67,20.53,28.75,92.58
2020,214,23.46,2.92,14.41,85.06,16.25,20.76,27.19,92.65
2020,215,22.56,4.08,4.75,86.94,17.63,20.01,25.86,92.64
2020,216,23.48,4.52,2.5,83.75,13.24,19.8,27.42,92.53
2020,217,23.3,5.84,3.97,79.25,10.97,20.84,27.35,92.44
2020,218,23.27,6.59,2.69,79.75,13.6,21.15,26.65,92.3
2020,219,24.8,5.23,1.21,79.62,15.48,21.45,29.46,92.41
2020,220,24.3,4.65,0.23,82.0,14.55,21.28,28.46,92.69
2020,221,23.36,4.21,5.86,83.5,15.05,20.48,27.77,92.73
2020,222,22.63,3.91,7.65,84.75,12.57,20.02,26.45,92.69
2020,223,22.8,2.82,0.27,85.88,15.51,19.59,26.43,92.7
2020,224,23.64,3.38,6.65,83.56,14.77,20.48,27.92,92.83
2020,225,23.72,3.6,0.19,82.88,14.65,20.26,28.39,92.9
2020,226,23.65,3.51,0.0,82.44,17.85,20.22,28.6,92.78
2020,227,23.75,3.77,0.0,80.31,14.23,20.01,28.83,92.67
2020,228,23.46,3.64,0.02,81.38,13.47,19.49,28.73,92.69
2020,229,23.87,3.51,0.12,81.69,8.89,20.09,29.3,92.73
2020,230,23.98,3.22,0.69,81.81,13.39,19.87,28.98,92.69
2020,231,24.3,3.33,0.56,81.25,15.24,20.26,29.83,92.73
2020,232,23.83,3.19,0.58,83.06,14.61,20.14,29.01,92.65
2020,233,23.81,3.22,0.02,82.5,14.13,20.1,29.02,92.66
2020,234,24.41,2.86,0.0,80.88,16.58,20.01,30.34,92.81
2020,235,24.4,2.51,9.58,82.5,19.38,20.36,29.4,92.9
2020,236,24.05,2.12,14.36,83.81,17.01,20.08,28.47,92.87
2020,237,24.48,1.68,9.4,81.06,19.18,20.26,28.78,92.88
2020,238,25.01,1.54,0.08,77.31,24.22,21.22,28.75,92.94
2020,239,23.96,1.54,7.46,83.38,19.27,21.17,27.29,92.95
2020,240,23.84,1.97,0.38,80.69,20.42,20.82,28.17,92.86
2020,241,24.69,2.27,0.0,75.75,25.02,20.08,30.1,92.77
2020,242,24.83,2.25,0.0,77.88,24.79,20.51,29.98,92.76
2020,243,24.8,1.79,9.88,81.5,22.31,21.08,28.53,92.81
2020,244,24.33,1.64,9.9,83.94,20.18,21.38,28.0,92.86
2020,245,22.71,2.48,7.53,90.19,18.31,21.23,24.66,92.78
2020,246,22.52,2.03,33.55,91.94,12.25,20.87,24.65,92.71
2020,247,23.52,1.64,5.4,87.62,15.99,20.27,27.53,92.75
2020,248,24.31,1.27,3.62,84.75,19.2,20.82,28.51,92.72
2020,249,24.37,1.38,2.26,84.25,15.97,21.29,28.36,92.66
2020,250,24.23,1.32,2.04,86.69,17.71,21.12,27.91,92.64
2020,251,23.44,1.9,10.35,88.25,18.95,20.51,27.41,92.74
2020,252,24.28,0.98,7.09,81.56,20.07,19.68,29.41,92.77
2020,253,24.08,1.79,19.64,85.25,17.58,20.95,28.34,92.67
2020,254,22.79,1.34,8.91,88.69,16.61,20.28,25.65,92.54
2020,255,22.7,3.2,1.65,86.44,14.8,20.21,26.45,92.61
2020,256,21.9,2.83,3.14,88.19,12.11,19.3,26.33,92.87
2020,257,21.4,3.41,5.3,85.5,10.66,18.15,26.08,92.89
2020,258,22.39,3.95,15.74,81.5,13.55,18.3,28.44,92.77
2020,259,23.15,3.27,1.33,84.0,15.09,18.18,28.95,92.75
2020,260,23.19,3.06,0.01,85.5,15.98,20.37,27.25,92.78
2020,261,23.65,2.91,0.12,84.25,18.17,19.81,28.72,92.81
2020,262,23.28,3.62,3.33,84.19,16.91,19.91,28.18,92.71
2020,263,22.9,4.21,5.77,84.25,13.0,19.61,28.05,92.51
2020,264,21.73,5.34,3.06,83.19,10.01,18.75,25.83,92.49
2020,265,22.05,4.77,1.26,83.25,14.6,19.1,26.4,92.54
2020,266,21.48,4.36,0.35,79.25,13.65,18.32,26.37,92.68
2020,267,22.72,3.22,0.01,80.56,19.41,17.12,28.91,92.78
2020,268,23.11,2.57,0.03,81.88,19.12,19.56,27.98,92.95
2020,269,22.47,1.33,9.08,85.88,19.44,19.04,25.79,92.91
2020,270,21.42,2.33,0.9,88.69,12.52,18.82,24.8,92.92
2020,271,22.76,1.85,0.44,84.81,17.28,18.88,27.73,92.94
2020,272,23.94,1.72,1.34,82.94,20.1,19.44,28.84,92.89
2020,273,23.57,2.37,43.06,88.31,17.05,20.69,27.72,92.75
2020,274,22.49,2.39,5.58,88.75,16.53,20.42,26.02,92.75
2020,275,22.72,2.6,0.06,81.81,20.97,19.23,28.48,92.79
2020,276,23.33,1.75,3.5,83.62,19.43,18.42,28.69,92.8
2020,277,22.6,2.84,6.08,86.56,19.46,20.26,26.27,92.86
2020,278,22.33,2.52,1.04,86.25,15.7,19.45,26.71,92.95
2020,279,23.18,2.3,0.01,82.0,20.19,19.22,28.47,92.86
2020,280,24.12,1.69,4.54,80.31,22.2,19.14,29.21,92.81
2020,281,24.16,1.69,5.29,83.19,20.35,20.36,28.83,92.84
2020,282,23.76,1.28,3.71,84.19,20.07,19.89,28.45,92.84
2020,283,23.28,0.82,19.39,86.06,16.71,20.01,27.2,92.82
2020,284,22.82,2.1,21.88,90.0,18.76,20.25,26.15,92.8
2020,285,22.1,2.55,2.27,88.69,11.66,19.89,25.87,92.66
2020,286,22.3,3.15,5.93,87.0,11.0,19.02,26.98,92.49
2020,287,22.15,3.19,3.85,88.75,9.77,19.57,26.08,92.42
2020,288,22.01,3.77,0.71,83.69,14.2,19.1,26.9,92.53
2020,289,22.26,2.54,0.19,86.38,17.86,18.57,27.44,92.59
2020,290,22.3,1.8,0.18,87.06,21.53,19.07,27.01,92.62
2020,291,22.65,1.3,3.8,81.94,18.12,18.5,26.77,92.72
2020,292,23.15,1.22,9.74,84.75,14.69,19.48,27.59,92.78
2020,293,22.71,1.34,16.94,89.19,14.71,19.87,26.34,92.76
2020,294,22.99,1.26,14.52,88.94,10.04,20.33,26.12,92.7
2020,295,22.92,1.45,13.15,91.5,13.06,20.73,26.2,92.73
2020,296,23.08,1.45,8.5,89.25,15.54,19.97,27.1,92.74
2020,297,22.97,1.37,1.55,89.75,13.71,20.57,26.14,92.79
2020,298,23.13,1.52,5.02,87.12,14.22,20.04,27.23,92.92
2020,299,23.51,0.56,0.64,76.56,16.74,18.96,28.03,93.04
2020,300,23.53,1.03,0.02,81.62,20.94,19.99,28.05,93.05
2020,301,22.64,1.36,0.0,81.69,20.14,17.8,27.87,93.01
2020,302,22.51,1.65,0.0,82.31,20.84,18.04,27.85,93.07
2020,303,22.0,1.7,0.88,84.69,17.53,17.65,27.32,93.1
2020,304,22.35,1.41,0.17,81.81,20.03,17.8,27.42,93.06
2020,305,23.18,1.01,0.0,77.0,19.79,19.44,28.44,93.05
2020,306,23.37,0.76,0.22,77.88,19.61,18.61,28.46,93.11
2020,307,23.44,0.95,1.06,83.38,17.15,19.4,28.09,93.18
2020,308,23.36,1.46,0.08,84.31,17.41,19.48,28.4,93.17
2020,309,23.73,1.36,0.12,84.94,15.69,19.86,28.14,93.12
2020,310,23.56,1.75,5.7,84.38,16.93,20.49,27.8,93.16
2020,311,23.02,1.73,3.31,83.75,19.53,19.23,28.09,93.26
2020,312,23.23,1.71,0.5,86.31,20.64,19.65,28.21,93.3
2020,313,22.92,2.15,2.08,88.44,15.36,19.97,27.23,93.34
2020,314,22.19,1.81,0.08,83.69,19.91,18.07,27.8,93.22
2020,315,19.91,1.91,0.0,78.69,22.42,15.01,26.4,93.06
2020,316,20.54,2.08,2.14,86.0,19.42,12.95,27.34,93.06
2020,317,22.11,2.22,4.3,91.12,15.43,18.98,25.75,93.11
2020,318,22.4,2.16,9.21,89.81,9.72,19.73,26.7,93.12
2020,319,22.47,2.46,1.21,87.5,17.38,18.83,27.38,93.04
2020,320,22.62,2.55,7.04,89.75,10.57,18.4,28.23,92.98
2020,321,22.42,2.3,12.75,90.5,9.84,20.38,26.09,93.07
2020,322,22.18,2.56,3.45,88.38,13.32,19.12,26.73,93.03
2020,323,22.42,2.03,1.08,87.62,15.23,19.39,27.0,93.06
2020,324,22.08,2.12,0.23,86.0,17.78,18.32,27.06,93.11
2020,325,21.5,1.96,0.0,84.44,21.23,17.21,26.94,93.18
2020,326,19.98,1.46,0.0,77.19,22.49,15.36,26.69,93.21
2020,327,19.03,1.41,0.0,76.25,20.51,13.94,26.1,93.25
2020,328,19.3,1.61,0.0,79.69,17.23,13.18,26.11,93.23
2020,329,20.65,1.98,0.07,86.31,14.77,15.79,26.09,93.11
2020,330,21.68,2.7,3.59,88.06,11.65,18.15,26.85,92.94
2020,331,19.9,5.27,29.66,92.88,3.15,18.75,21.81,92.71
2020,332,20.2,2.62,0.48,90.19,14.57,18.0,24.08,92.95
2020,333,20.69,1.88,0.47,88.06,13.22,16.94,25.45,93.22
2020,334,21.75,2.11,0.78,87.19,9.7,18.45,26.7,93.27
2020,335,21.35,2.31,0.37,86.31,14.85,17.99,26.37,93.28
2020,336,20.01,2.02,0.0,82.88,19.26,16.66,24.69,93.31
2020,337,20.77,2.41,0.94,83.12,15.76,15.79,27.14,93.15
2020,338,20.57,2.77,8.97,92.06,7.52,17.28,23.89,93.0
2020,339,20.9,2.76,4.25,91.94,7.21,18.26,23.51,92.92
2020,340,21.67,2.4,1.08,87.38,9.65,17.34,27.01,92.97
2020,341,21.94,2.73,6.21,87.75,9.63,18.8,26.48,93.1
2020,342,22.24,2.87,5.62,88.38,10.73,19.04,26.73,93.23
2020,343,22.04,2.68,3.63,88.88,11.2,18.87,26.7,93.32
2020,344,21.94,2.23,0.53,87.19,13.97,18.3,26.9,93.24
2020,345,20.32,1.58,0.01,80.06,20.54,16.26,26.03,93.26
2020,346,19.53,1.48,0.0,79.81,20.84,15.14,26.4,93.26
2020,347,19.12,1.48,0.0,80.56,19.88,14.24,25.91,93.23
2020,348,19.15,1.37,0.0,80.06,18.8,13.65,26.0,93.15
2020,349,19.3,1.56,0.0,81.38,19.56,14.23,26.05,93.15
2020,350,19.42,1.98,0.01,82.25,19.4,14.09,25.58,93.26
2020,351,20.99,2.15,1.95,85.62,12.35,16.4,26.5,93.28
2020,352,21.37,2.38,0.34,86.88,9.17,17.87,26.37,93.26
2020,353,19.8,1.96,0.01,87.38,19.89,16.92,23.35,93.28
2020,354,20.17,2.39,0.01,85.19,15.96,15.69,26.52,93.31
2020,355,19.8,2.42,0.0,82.88,14.7,14.67,25.97,93.36
2020,356,18.02,2.19,0.0,81.62,20.94,12.8,25.37,93.25
2020,357,18.93,1.82,0.0,78.88,19.22,13.09,26.07,93.19
2020,358,19.85,1.64,0.0,79.75,15.96,15.2,26.51,93.13
2020,359,20.76,1.59,0.0,81.38,16.96,15.55,27.67,93.05
2020,360,20.63,1.8,0.0,81.75,18.09,16.14,27.33,93.11
2020,361,19.52,1.87,0.0,79.88,20.48,14.73,27.19,93.2
2020,362,19.23,1.71,0.0,77.81,21.19,13.31,27.42,93.16
2020,363,19.53,1.27,0.0,74.25,18.19,13.67,27.13,93.11
2020,364,20.65,1.91,0.19,79.19,18.34,15.09,27.62,93.1
2020,365,21.78,2.47,2.66,83.88,17.38,16.83,27.98,93.08
2020,366,21.69,2.93,3.32,85.19,9.19,17.55,27.53,93.15
2021,1,19.77,2.41,0.31,80.56,18.05,15.61,26.52,93.21
2021,2,20.56,2.43,0.82,83.81,14.7,14.58,27.33,93.19
2021,3,21.73,2.6,0.66,82.88,11.54,17.04,27.8,93.08
2021,4,21.7,2.85,0.27,81.19,7.5,17.8,27.67,93.08
2021,5,21.67,2.27,1.0,86.31,14.21,17.84,26.8,93.12
2021,6,22.18,1.96,12.87,86.5,9.97,18.4,27.55,93.06
2021,7,21.9,1.98,5.75,88.12,10.56,19.11,26.46,92.93
2021,8,22.73,2.1,0.86,85.62,11.72,19.07,27.7,92.88
2021,9,22.75,2.37,0.55,84.19,8.5,19.35,27.97,92.93
2021,10,22.0,2.14,0.11,84.25,14.26,18.35,26.96,93.02
2021,11,21.64,2.12,0.19,83.62,10.24,18.34,26.49,93.13
2021,12,20.59,2.73,0.8,85.25,9.28,17.15,25.09,93.13
2021,13,21.33,2.81,0.87,79.62,17.11,17.32,27.36,93.11
2021,14,21.27,2.56,1.25,81.62,12.97,16.69,27.34,93.09
2021,15,22.05,2.41,0.17,77.06,16.5,17.69,28.9,93.06
2021,16,21.98,2.1,0.01,74.69,17.38,17.08,29.45,93.0
2021,17,21.65,2.03,0.0,74.94,18.76,15.63,30.26,93.06
2021,18,20.84,2.25,0.0,73.31,22.11,14.79,29.18,93.16
2021,19,20.92,1.89,0.0,73.31,21.14,15.34,29.04,93.15
2021,20,21.94,1.26,0.0,71.31,20.6,15.05,30.55,93.17
2021,21,23.4,1.09,0.0,73.94,20.71,16.98,30.78,93.13
2021,22,23.59,1.55,0.07,73.44,17.8,18.76,30.61,93.1
2021,23,22.86,1.61,0.04,72.12,19.36,17.55,30.32,93.14
2021,24,22.14,1.52,0.0,69.62,21.07,16.74,30.73,93.2
2021,25,20.96,1.94,0.0,68.31,22.34,15.01,29.72,93.26
2021,26,20.7,1.93,0.0,63.25,23.23,13.88,30.28,93.2
2021,27,20.13,2.02,0.0,65.19,22.43,12.08,29.71,93.23
2021,28,20.85,2.39,0.0,69.5,21.88,14.76,29.38,93.25
2021,29,21.74,2.3,0.0,71.06,20.29,14.88,29.98,93.29
2021,30,22.53,1.89,0.0,65.56,19.63,15.29,30.87,93.21
2021,31,22.4,2.42,0.04,65.06,21.76,16.76,30.94,93.26
2021,32,21.33,2.52,0.0,62.88,22.96,14.0,30.65,93.38
2021,33,21.8,2.72,0.0,66.0,22.38,15.44,30.44,93.4
2021,34,22.15,2.63,0.0,69.5,19.66,16.73,29.76,93.34
2021,35,21.99,2.16,0.0,63.94,22.37,15.58,30.24,93.33
2021,36,21.72,1.71,0.0,63.25,22.77,13.94,31.36,93.23
2021,37,21.41,2.2,0.0,61.81,23.1,14.5,31.44,93.17
2021,38,20.97,2.51,0.0,53.5,24.13,12.51,31.3,93.19
2021,39,20.71,2.63,0.0,59.75,24.26,11.73,30.87,93.27
2021,40,20.66,2.7,0.0,61.75,23.64,13.94,30.06,93.23
2021,41,20.48,2.09,0.0,56.56,24.49,12.67,31.25,93.16
2021,42,20.76,1.99,0.0,58.94,24.35,13.16,31.39,93.1
2021,43,20.91,2.03,0.0,59.31,24.75,13.56,31.67,93.16
2021,44,21.19,1.78,0.0,59.38,24.39,14.01,31.71,93.24
2021,45,21.85,1.14,0.0,56.62,24.52,13.86,32.07,93.25
2021,46,22.94,1.15,0.0,56.19,23.44,14.84,32.49,93.14
2021,47,23.71,1.69,0.0,58.56,20.96,15.3,32.44,93.11
2021,48,23.63,2.32,0.0,57.0,19.43,16.79,32.24,93.07
2021,49,23.23,2.91,0.0,60.38,17.94,17.85,31.18,93.2
2021,50,23.16,2.51,4.23,62.62,16.74,16.82,31.36,93.22
2021,51,22.94,2.91,3.56,71.62,15.81,18.28,29.51,93.17
2021,52,22.15,3.55,2.83,74.25,14.33,19.15,26.07,93.23
2021,53,23.46,2.1,0.61,63.25,21.07,17.0,31.68,93.3
2021,54,24.51,2.1,0.06,60.75,24.21,17.49,33.27,93.18
2021,55,24.43,1.64,0.0,56.69,24.59,17.28,34.01,93.12
2021,56,25.29,1.5,0.0,53.62,24.74,17.22,34.9,93.1
2021,57,25.42,1.59,0.0,47.81,24.63,17.08,35.0,92.99
2021,58,25.98,1.71,0.0,45.31,23.95,17.52,35.33,92.92
2021,59,25.26,2.48,0.0,46.38,24.5,16.91,35.02,92.98
2021,60,24.93,1.93,0.0,47.12,25.46,17.21,34.69,93.23
2021,61,25.24,2.46,0.0,47.94,23.97,17.6,34.51,93.24
2021,62,24.95,2.91,0.0,43.81,25.31,17.02,34.54,93.15
2021,63,23.71,2.98,0.0,49.25,26.63,14.61,33.69,93.16
2021,64,24.46,1.92,0.0,45.88,26.85,14.98,35.33,93.25
2021,65,26.11,1.64,0.0,45.19,26.39,17.54,36.77,93.24
2021,66,26.05,1.81,0.0,48.06,25.66,17.19,36.01,93.15
2021,67,25.69,2.37,0.0,50.19,26.78,17.64,35.37,93.18
2021,68,26.15,2.75,0.0,49.12,26.71,18.04,35.45,93.24
2021,69,26.97,2.37,0.11,53.56,26.01,19.59,35.8,93.23
2021,70,27.01,2.87,0.75,53.25,25.04,20.22,35.01,93.22
2021,71,26.12,2.55,0.26,48.06,25.64,19.69,34.73,93.29
2021,72,25.8,2.56,0.0,47.12,27.08,15.55,35.12,93.25
2021,73,26.32,2.57,0.0,47.62,26.77,17.49,35.91,93.13
2021,74,26.88,1.95,0.0,43.56,25.39,18.51,36.3,93.05
2021,75,27.36,2.06,0.0,43.0,26.11,18.69,36.62,93.05
2021,76,27.08,2.59,0.0,41.94,24.14,18.23,35.98,92.99
2021,77,26.4,2.73,0.0,46.44,23.01,19.29,35.0,93.05
2021,78,25.36,2.58,0.0,42.88,25.73,18.1,33.12,93.01
2021,79,26.47,2.34,0.0,35.75,24.03,18.15,35.73,92.89
2021,80,27.12,2.33,0.0,37.25,25.63,18.87,35.8,92.89
2021,81,27.75,2.27,0.0,38.75,25.81,19.79,36.65,92.99
2021,82,27.95,2.44,0.0,43.5,25.82,18.81,37.58,93.04
2021,83,28.23,2.61,0.0,44.69,24.83,18.73,37.32,93.05
2021,84,28.33,2.52,0.17,40.25,21.77,20.83,36.38,92.99
2021,85,28.78,2.84,0.0,41.19,24.73,21.66,37.51,92.95
2021,86,27.55,2.47,0.0,48.31,23.35,19.4,35.5,92.93
2021,87,27.8,1.95,0.0,46.94,18.16,20.86,35.21,92.9
2021,88,29.03,2.38,0.0,41.69,19.41,21.51,37.08,92.85
2021,89,30.1,2.23,0.0,37.62,22.36,21.96,38.05,92.73
2021,90,32.11,1.77,0.0,30.12,23.62,23.86,40.35,92.6
2021,91,30.87,2.75,0.0,28.12,26.28,22.97,39.8,92.58
2021,92,30.02,2.09,0.0,28.62,27.38,20.45,38.69,92.64
2021,93,31.37,1.15,0.01,32.69,24.85,22.44,39.1,92.67
2021,94,32.06,2.38,0.69,29.88,22.75,25.76,38.76,92.81
2021,95,31.33,2.53,0.36,37.75,22.63,23.67,38.94,92.86
2021,96,29.68,2.91,0.01,43.69,23.03,22.05,37.46,92.99
2021,97,29.76,2.59,0.0,37.44,25.08,21.1,38.09,93.06
2021,98,29.06,2.64,0.0,32.88,21.61,20.44,38.0,92.91
2021,99,28.78,2.74,0.0,39.5,23.5,20.46,37.42,92.85
2021,100,28.9,3.2,0.0,45.94,24.39,20.76,37.51,92.95
2021,101,29.01,2.83,0.01,49.12,22.14,21.64,37.11,93.08
2021,102,28.78,2.57,4.19,52.69,20.72,22.15,36.32,93.13
2021,103,28.4,2.34,0.75,52.75,20.36,22.68,34.83,93.1
2021,104,27.49,1.5,6.27,59.88,17.64,23.09,33.06,93.06
2021,105,25.08,1.52,12.02,75.62,19.87,22.08,29.99,93.07
2021,106,26.86,1.77,0.63,63.56,22.82,20.41,33.92,93.0
2021,107,27.62,1.22,0.13,61.0,22.03,21.95,33.82,93.02
2021,108,27.97,1.47,0.01,58.75,22.76,22.22,34.3,93.11
2021,109,27.82,1.03,0.78,61.0,22.25,22.48,32.74,92.98
2021,110,27.59,1.4,2.53,61.81,18.87,22.71,33.49,92.89
2021,111,27.0,1.09,5.45,67.12,21.43,22.54,31.27,93.01
2021,112,28.05,1.12,0.84,60.0,21.6,21.73,34.91,93.0
2021,113,26.73,1.08,26.49,66.94,19.66,21.37,31.73,93.01
2021,114,27.05,1.14,5.5,67.06,20.78,22.48,32.78,92.97
2021,115,27.44,1.9,1.68,64.56,21.14,22.27,34.27,92.93
2021,116,26.47,1.61,0.15,67.62,22.99,22.39,31.76,92.92
2021,117,26.75,1.4,0.0,64.38,21.53,20.74,33.35,92.96
2021,118,27.63,1.51,0.0,58.75,23.33,21.99,34.6,93.01
2021,119,28.18,1.67,0.03,56.81,22.56,21.66,35.52,92.94
2021,120,27.05,1.79,1.33,64.56,20.57,22.07,32.3,92.87
2021,121,27.14,2.1,3.03,67.44,22.67,22.25,33.42,92.88
2021,122,26.97,1.38,0.18,65.94,20.86,21.87,32.94,92.9
2021,123,27.18,1.74,0.85,65.62,19.95,22.25,33.37,92.84
2021,124,27.95,1.71,0.15,63.81,18.94,22.45,34.19,92.81
2021,125,28.23,2.08,0.12,60.94,23.42,22.83,34.94,92.82
2021,126,28.58,2.45,0.03,59.38,21.89,22.59,35.8,92.88
2021,127,28.15,2.59,2.57,61.69,20.75,22.62,35.41,92.96
2021,128,28.12,2.33,0.06,60.75,20.62,22.05,35.44,92.89
2021,129,28.73,1.89,0.04,60.06,24.29,23.04,35.7,92.78
2021,130,28.44,1.64,0.14,63.5,18.16,23.19,34.22,92.77
2021,131,27.64,1.05,0.18,68.81,21.04,23.73,31.48,92.78
2021,132,27.28,0.99,10.98,73.19,17.66,23.56,31.69,92.7
2021,133,26.9,1.19,6.83,75.25,20.97,23.29,31.5,92.63
2021,134,27.76,3.0,2.61,65.31,22.98,22.07,35.23,92.5
2021,135,25.3,3.73,1.5,76.38,11.08,21.95,29.49,92.42
2021,136,26.09,3.25,0.34,74.69,14.62,22.32,31.55,92.54
2021,137,27.53,2.06,0.49,67.69,22.95,21.07,34.9,92.71
2021,138,27.0,2.01,0.67,69.5,24.69,21.94,32.87,92.78
2021,139,25.72,1.85,165.75,83.06,23.82,22.42,29.17,92.74
2021,140,24.65,2.25,55.07,82.81,17.87,21.76,28.93,92.81
2021,141,23.99,2.2,10.14,82.56,18.25,20.66,28.52,92.88
2021,142,24.63,2.58,3.67,79.56,20.82,20.58,30.03,92.8
2021,143,25.01,2.92,1.21,78.0,22.39,20.8,29.51,92.83
2021,144,24.96,2.95,0.03,76.06,23.76,21.16,29.51,92.87
2021,145,23.54,3.18,11.48,85.31,19.23,21.17,26.83,92.75
2021,146,24.03,4.48,1.36,76.75,20.79,20.02,29.71,92.7
2021,147,24.83,3.28,0.0,76.19,24.21,20.33,30.86,92.75
2021,148,25.41,3.46,0.0,73.56,25.88,20.45,31.95,92.81
2021,149,25.19,2.98,1.23,74.31,25.81,20.37,31.44,92.87
2021,150,24.83,3.12,1.7,76.38,25.57,20.1,31.18,92.85
2021,151,25.48,2.81,0.08,75.25,25.84,20.6,31.65,92.69
2021,152,25.83,2.21,3.86,77.75,23.81,20.85,31.48,92.69
2021,153,25.89,1.2,3.08,77.12,23.32,21.42,30.08,92.74
2021,154,25.36,0.8,11.81,81.56,19.17,22.33,28.58,92.8
2021,155,24.19,1.8,11.62,88.12,16.93,22.08,27.35,92.88
2021,156,22.83,1.71,8.46,84.19,16.95,20.15,26.14,92.92
2021,157,24.55,1.98,0.1,73.81,21.49,19.16,30.68,92.86
2021,158,24.25,2.43,0.44,77.81,25.82,20.21,29.29,92.89
2021,159,25.32,2.98,0.16,73.75,25.4,20.28,31.7,92.83
2021,160,24.53,3.36,1.52,79.19,21.95,20.32,30.06,92.76
2021,161,24.87,3.59,0.02,75.25,20.51,20.56,31.19,92.65
2021,162,23.66,3.57,0.0,79.69,19.36,20.66,27.83,92.73
2021,163,23.32,4.82,1.73,76.94,17.46,20.3,28.08,92.73
2021,164,23.83,5.21,0.54,71.56,16.47,19.08,30.4,92.68
2021,165,23.18,5.81,0.71,76.19,14.22,19.86,27.64,92.63
2021,166,23.11,4.83,0.66,79.19,15.31,20.38,27.12,92.61
2021,167,24.44,4.48,0.98,76.44,15.92,20.81,29.18,92.71
2021,168,24.37,4.28,0.51,78.0,19.33,20.61,29.7,92.8
2021,169,23.69,4.19,0.01,78.75,16.68,20.65,28.28,92.91
2021,170,23.88,3.64,0.0,80.62,18.91,20.44,28.78,93.02
2021,171,24.12,3.1,0.0,79.25,21.13,20.21,28.74,93.03
2021,172,24.81,2.95,0.05,76.56,21.17,20.33,30.4,92.94
2021,173,24.92,2.59,0.4,76.38,18.99,21.01,30.09,92.85
2021,174,24.79,2.45,6.04,78.31,20.4,20.9,30.18,92.84
2021,175,24.61,3.13,1.02,76.38,20.97,20.92,30.21,92.89
2021,176,24.0,3.26,0.0,75.75,23.78,20.17,30.0,92.82
2021,177,24.04,3.52,1.14,76.56,15.45,19.82,29.57,92.77
2021,178,23.07,3.2,0.8,74.0,13.62,19.38,27.75,92.88
2021,179,23.79,1.78,0.61,71.88,19.38,18.66,30.38,92.79
2021,180,25.76,1.75,0.53,72.81,22.88,19.59,32.48,92.74
2021,181,25.95,1.8,1.47,78.12,23.64,21.94,30.4,92.74
2021,182,24.12,1.82,32.34,88.56,11.92,22.03,26.61,92.68
2021,183,24.15,2.4,2.29,84.31,20.14,21.33,27.52,92.75
2021,184,23.94,1.72,5.36,82.81,18.31,20.47,28.05,92.81
2021,185,24.23,1.58,31.32,81.62,20.05,20.9,28.22,92.79
2021,186,24.62,1.8,2.17,79.69,22.64,21.01,28.65,92.7
2021,187,24.74,1.55,0.4,81.75,20.56,21.22,28.13,92.58
2021,188,24.37,2.05,1.15,83.12,17.88,21.71,28.31,92.58
2021,189,24.05,2.3,8.63,84.0,21.59,21.03,27.35,92.66
2021,190,23.98,2.95,8.23,83.62,18.47,20.85,28.22,92.51
2021,191,22.6,3.59,1.55,82.38,15.68,19.21,26.44,92.46
2021,192,22.35,4.32,0.02,80.38,15.0,18.81,27.48,92.48
2021,193,22.66,4.44,0.04,81.0,15.9,19.73,26.46,92.5
2021,194,23.95,4.84,1.77,80.06,12.81,20.23,29.36,92.52
2021,195,23.59,4.79,13.04,82.56,10.45,20.51,27.64,92.59
2021,196,23.01,4.02,7.64,84.56,9.31,20.46,26.76,92.59
2021,197,24.09,3.2,7.02,81.88,17.23,20.4,29.59,92.75
2021,198,23.75,2.99,17.73,84.56,16.7,20.41,27.69,92.78
2021,199,23.2,3.86,10.95,88.06,11.43,21.26,26.05,92.69
2021,200,23.98,4.12,1.9,81.62,15.54,20.28,29.19,92.7
2021,201,23.94,4.99,0.47,80.0,18.98,20.23,29.66,92.9
2021,202,23.79,4.77,0.88,80.25,10.73,20.07,28.99,92.84
2021,203,23.26,5.91,1.23,82.19,9.38,20.62,27.26,92.58
2021,204,24.14,5.37,0.48,78.0,8.87,20.11,29.23,92.51
2021,205,24.47,4.37,2.29,79.88,17.11,20.45,29.69,92.66
2021,206,23.33,3.99,19.7,84.0,18.01,20.68,27.79,92.8
2021,207,23.58,3.74,5.49,82.56,17.65,20.2,28.65,92.81
2021,208,23.73,3.75,0.58,81.25,19.11,19.9,29.01,92.75
2021,209,24.21,4.05,0.02,77.62,20.16,20.04,30.19,92.82
2021,210,23.78,3.84,0.01,80.38,19.15,19.8,29.52,92.85
2021,211,23.55,3.81,0.0,81.31,19.21,19.61,28.71,92.93
2021,212,23.99,3.81,0.06,79.62,17.36,19.92,29.68,92.97
2021,213,24.05,3.76,0.01,78.62,16.94,20.06,29.67,92.88
2021,214,23.85,4.02,0.01,76.31,18.48,19.63,30.11,92.88
2021,215,24.13,3.77,0.1,77.88,16.31,19.56,30.11,93.01
2021,216,24.31,4.27,0.09,78.38,14.01,20.44,29.62,93.04
2021,217,24.26,4.36,1.78,78.19,14.94,19.29,30.41,92.88
2021,218,24.73,3.95,6.02,79.06,16.9,20.28,30.42,92.79
2021,219,24.51,3.33,3.82,81.88,19.59,21.02,29.56,92.82
2021,220,24.76,2.08,1.26,79.94,21.83,20.46,29.93,92.87
2021,221,24.69,2.18,6.18,79.88,20.77,20.25,30.01,92.89
2021,222,23.59,3.23,10.18,82.69,14.71,19.98,28.98,92.85
2021,223,24.04,2.55,0.87,81.62,17.6,20.49,28.65,92.82
2021,224,23.14,3.14,0.8,84.62,12.67,20.72,26.67,92.91
2021,225,23.84,3.03,11.16,81.69,16.64,20.1,29.11,92.82
2021,226,23.36,3.07,0.91,82.56,18.91,20.38,27.81,92.72
2021,227,23.25,3.43,0.01,80.25,16.48,19.76,27.88,92.76
2021,228,23.84,2.99,2.14,79.06,15.63,19.67,29.73,92.82
2021,229,24.26,2.7,0.58,77.06,15.91,19.62,30.33,92.86
2021,230,23.4,3.02,2.77,77.5,17.3,19.73,28.67,92.79
2021,231,22.98,3.63,0.64,75.31,17.91,17.82,29.52,92.74
2021,232,22.94,2.4,10.13,78.25,20.78,19.08,28.58,92.79
2021,233,23.14,1.26,5.23,80.5,15.78,19.3,28.05,92.92
2021,234,23.57,1.24,2.83,81.81,20.43,19.75,28.57,92.88
2021,235,23.88,1.56,0.95,82.12,18.09,20.94,28.01,92.86
2021,236,24.85,1.57,2.89,77.06,21.6,20.21,30.05,92.85
2021,237,24.92,2.22,0.93,77.06,20.42,20.4,29.92,92.77
2021,238,24.58,1.69,2.91,81.56,22.0,20.93,29.61,92.63
2021,239,24.06,2.48,17.01,84.94,17.58,20.98,28.41,92.59
2021,240,23.48,3.04,6.17,82.56,15.04,20.59,28.44,92.53
2021,241,23.19,3.59,2.02,79.62,12.64,20.08,27.83,92.52
2021,242,23.08,3.45,0.2,79.06,15.91,18.83,28.62,92.61
2021,243,24.4,2.7,0.41,76.25,19.69,19.72,30.58,92.67
2021,244,24.13,1.82,5.55,79.0,18.76,20.02,29.02,92.84
2021,245,23.01,1.4,26.03,87.12,14.52,20.85,26.24,92.81
2021,246,23.54,2.59,8.92,79.5,14.17,19.16,29.19,92.75
2021,247,22.78,2.79,5.17,85.94,12.95,19.87,27.4,92.76
2021,248,23.44,3.59,7.86,81.44,15.63,19.6,28.85,92.75
2021,249,22.73,4.24,7.05,79.62,17.15,19.58,28.0,92.72
2021,250,22.67,3.57,0.41,81.19,15.31,19.48,28.01,92.75
2021,251,22.88,2.93,3.71,84.94,16.94,19.89,27.1,92.84
2021,252,23.46,2.84,0.63,81.5,19.39,19.25,29.33,92.94
2021,253,23.52,2.96,0.0,82.62,18.56,19.78,28.3,92.91
2021,254,23.08,3.16,0.69,84.81,17.76,19.79,27.54,92.81
2021,255,23.72,3.71,0.31,82.0,17.2,19.89,28.82,92.7
2021,256,23.62,4.0,0.04,82.62,15.61,20.0,28.14,92.62
2021,257,24.27,2.98,0.0,81.19,17.77,20.22,29.79,92.7
2021,258,24.44,2.38,0.3,81.12,19.29,20.05,29.8,92.8
2021,259,24.28,2.46,0.14,81.62,20.64,20.12,28.83,92.77
2021,260,24.44,2.03,0.1,79.06,23.97,20.33,29.42,92.73
2021,261,25.25,1.48,0.11,74.88,21.53,20.23,30.28,92.84
2021,262,24.02,1.24,14.62,82.81,21.5,20.96,28.21,93.01
2021,263,24.06,1.27,15.16,84.5,17.08,20.83,28.17,92.93
2021,264,23.79,2.15,3.01,83.31,21.37,20.51,28.87,92.84
2021,265,24.15,2.22,4.09,81.31,17.72,19.37,29.67,92.7
2021,266,24.53,1.76,8.02,80.94,17.98,20.75,29.23,92.72
2021,267,24.55,1.62,2.43,81.12,19.65,20.89,29.14,92.79
2021,268,24.08,1.79,8.51,85.06,16.62,21.07,28.27,92.74
2021,269,22.92,2.51,1.47,86.0,17.92,20.25,26.45,92.6
2021,270,23.58,3.38,2.41,82.0,16.66,20.1,29.02,92.48
2021,271,22.62,2.87,2.07,83.19,16.34,19.32,27.66,92.68
2021,272,22.99,2.56,2.24,78.88,18.83,18.91,29.3,92.84
2021,273,24.08,1.24,3.26,76.19,20.1,18.36,29.89,92.92
2021,274,24.44,1.41,1.59,82.0,15.18,20.34,29.3,92.86
2021,275,23.9,1.6,6.04,86.06,16.85,21.01,27.8,92.82
2021,276,23.68,1.84,10.51,84.0,17.26,20.78,28.03,92.83
2021,277,23.8,1.4,7.02,84.5,19.44,19.31,29.01,92.76
2021,278,23.73,1.07,17.99,86.44,13.04,21.19,27.83,92.74
2021,279,23.26,0.98,2.21,87.06,12.24,20.18,28.0,92.63
2021,280,24.82,0.98,1.55,81.0,20.61,20.09,29.87,92.67
2021,281,24.36,1.66,5.35,86.56,16.41,21.38,28.16,92.77
2021,282,23.55,2.35,4.55,88.81,11.98,21.02,27.01,92.91
2021,283,23.5,1.89,7.43,86.56,19.41,20.54,27.56,92.86
2021,284,23.73,1.41,14.28,85.44,16.89,20.31,27.8,92.73
2021,285,22.96,1.88,10.24,87.75,17.57,20.35,26.25,92.74
2021,286,22.5,2.31,3.56,87.0,17.06,19.9,26.25,92.72
2021,287,23.87,1.39,12.34,83.31,19.03,19.86,28.61,92.63
2021,288,24.03,0.66,18.1,86.94,14.53,20.91,28.47,92.39
2021,289,24.04,1.71,10.81,88.69,16.07,21.82,27.72,92.33
2021,290,22.77,2.21,2.89,92.25,14.73,21.54,24.44,92.5
2021,291,23.57,2.01,1.33,88.12,12.75,20.21,27.44,92.79
2021,292,23.01,1.24,5.61,86.44,19.16,20.48,26.03,93.03
2021,293,23.56,1.2,6.38,86.25,13.24,19.5,28.22,93.15
2021,294,23.23,0.95,9.44,89.69,17.82,20.8,26.48,93.19
2021,295,23.44,1.29,2.39,88.25,19.61,20.65,27.51,93.2
2021,296,23.12,1.35,5.51,87.94,18.41,20.46,26.59,93.27
2021,297,23.49,0.83,4.88,81.62,20.05,19.07,28.45,93.25
2021,298,22.95,1.35,0.92,86.38,13.87,19.7,27.2,93.08
2021,299,23.26,1.14,1.01,85.25,14.35,19.41,27.82,92.99
2021,300,22.98,1.58,0.38,83.88,13.65,19.26,28.18,93.02
2021,301,22.64,1.59,0.17,83.56,14.84,19.04,27.73,93.04
2021,302,22.07,1.84,2.57,86.5,13.16,19.3,26.38,93.14
2021,303,22.45,2.18,2.79,87.88,14.8,19.15,26.84,93.19
2021,304,22.32,1.8,1.33,89.12,14.43,19.54,26.88,93.14
2021,305,21.97,1.74,3.44,91.19,13.22,19.45,25.01,93.05
2021,306,21.76,2.66,8.19,90.25,12.48,19.34,25.27,93.04
2021,307,22.23,2.19,1.8,88.88,12.69,19.32,26.2,93.06
2021,308,22.51,1.6,22.01,88.94,14.69,19.76,26.33,93.05
2021,309,22.83,0.78,10.2,86.75,14.05,19.54,27.05,93.01
2021,310,22.94,1.22,1.88,86.75,16.17,20.16,26.74,92.92
2021,311,22.41,1.53,6.99,87.56,11.95,19.46,26.22,92.87
2021,312,21.48,0.86,3.95,94.12,7.7,20.08,23.6,92.95
2021,313,21.23,1.17,1.35,90.19,14.42,18.98,24.43,93.04
2021,314,20.73,1.67,3.31,86.75,9.18,18.19,25.83,92.96
2021,315,19.76,3.41,17.65,89.88,7.3,17.61,23.0,92.69
2021,316,21.19,3.22,16.87,91.0,6.55,17.89,25.65,92.58
2021,317,22.98,0.81,6.13,85.12,8.57,19.86,26.59,92.8
2021,318,22.84,1.01,4.74,88.69,12.41,19.54,26.44,92.8
2021,319,23.36,0.77,20.03,88.81,14.07,20.6,27.17,92.7
2021,320,22.62,1.77,4.4,91.88,12.57,20.77,25.49,92.73
2021,321,22.62,1.34,7.75,91.62,14.22,20.04,25.72,92.94
2021,322,20.4,2.95,43.21,91.75,3.64,17.7,22.49,92.78
2021,323,22.51,3.16,17.4,92.69,8.15,19.62,26.76,92.32
2021,324,22.54,1.9,4.56,92.31,11.16,20.42,26.25,92.54
2021,325,22.18,1.34,3.23,81.88,15.65,18.31,27.51,92.93
2021,326,22.12,1.38,1.38,86.19,13.82,17.75,27.01,93.05
2021,327,22.73,1.45,0.69,89.5,18.16,19.85,26.91,93.02
2021,328,22.58,1.62,1.46,86.75,16.59,19.13,27.37,93.02
2021,329,21.56,1.89,2.21,89.75,14.81,18.89,25.32,93.05
2021,330,21.55,2.2,4.54,88.5,11.6,18.65,25.98,93.05
2021,331,21.07,2.49,1.43,90.81,8.48,19.23,24.25,93.05
2021,332,20.72,2.51,3.84,92.0,9.88,18.43,24.06,93.09
2021,333,20.55,2.6,4.32,92.25,8.09,18.37,23.86,93.17
2021,334,21.22,2.27,1.48,90.94,14.02,18.27,25.26,93.16
2021,335,22.13,2.56,0.56,89.38,12.82,19.28,26.55,93.11
2021,336,22.34,1.83,0.22,87.19,12.27,18.8,26.99,93.08
2021,337,21.59,0.98,0.28,85.0,13.7,18.59,25.7,93.14
2021,338,21.76,0.66,0.52,79.19,14.24,19.06,24.86,93.15
2021,339,23.16,0.91,0.55,81.38,15.23,18.64,28.32,93.13
2021,340,22.62,0.92,1.15,87.31,12.17,19.03,27.38,93.09
2021,341,22.37,1.69,0.25,87.06,13.67,19.13,26.66,93.12
2021,342,21.39,1.76,0.1,84.0,18.61,17.41,26.98,93.18
2021,343,22.5,1.61,2.58,86.38,11.41,18.52,27.57,93.24
2021,344,21.16,2.26,0.16,85.56,20.0,18.38,26.12,93.34
2021,345,21.32,2.38,0.35,88.44,13.23,17.8,25.92,93.3
2021,346,21.28,2.68,0.76,88.12,12.9,18.12,25.93,93.32
2021,347,21.35,2.35,1.44,89.0,11.8,18.09,26.02,93.22
2021,348,20.67,2.48,0.77,88.44,12.62,18.29,25.45,93.18
2021,349,20.76,2.16,0.07,85.19,11.84,17.7,25.83,93.23
2021,350,20.37,2.06,0.0,84.62,16.93,16.22,26.29,93.31
2021,351,20.31,1.61,0.0,82.62,18.61,16.16,26.53,93.36
2021,352,19.25,1.84,0.0,80.56,17.97,14.9,25.81,93.3
2021,353,17.9,1.87,0.0,79.81,19.5,13.17,25.19,93.41
2021,354,17.93,1.77,0.0,82.88,20.21,12.6,25.05,93.41
2021,355,18.75,1.01,0.0,77.88,18.93,13.19,25.99,93.42
2021,356,18.51,1.24,0.0,80.12,17.51,12.96,25.73,93.3
2021,357,18.67,1.12,0.0,77.81,18.34,13.32,26.09,93.23
2021,358,18.23,1.21,0.0,74.25,19.77,12.27,26.08,93.26
2021,359,19.01,1.27,0.0,78.62,20.02,13.01,27.08,93.29
2021,360,19.06,1.47,0.0,82.56,19.82,13.84,26.44,93.41
2021,361,19.09,1.74,0.0,82.88,20.4,14.18,25.56,93.45
2021,362,19.14,1.93,0.0,83.56,20.03,14.51,25.26,93.38
2021,363,19.49,1.91,0.0,83.44,19.29,14.94,25.44,93.31
2021,364,20.02,2.26,1.03,85.0,16.45,14.52,25.87,93.38
2021,365,21.27,3.09,2.53,87.31,9.94,17.74,26.28,93.44
2022,1,21.26,2.7,2.32,87.31,12.94,18.22,26.25,93.48
2022,2,20.71,2.52,0.26,85.0,19.05,17.05,26.37,93.39
2022,3,20.09,1.9,0.0,80.56,18.97,15.69,26.55,93.36
2022,4,20.33,1.8,0.0,82.88,19.01,15.88,26.57,93.37
2022,5,20.37,1.1,0.0,79.31,19.39,14.69,27.02,93.36
2022,6,20.33,1.73,0.0,82.62,19.51,15.66,26.57,93.28
2022,7,20.79,1.77,0.0,83.19,17.49,16.56,26.75,93.3
2022,8,21.32,1.75,0.0,83.88,15.73,16.87,27.1,93.32
2022,9,21.28,1.73,0.0,82.69,17.4,17.12,27.15,93.2
2022,10,20.57,1.68,0.0,79.69,17.97,16.19,27.26,93.2
2022,11,20.94,1.65,0.0,79.94,19.79,15.76,27.64,93.2
2022,12,21.55,1.49,0.0,81.38,17.11,16.68,27.76,93.15
2022,13,21.99,1.4,0.0,81.38,19.07,17.38,27.53,93.1
2022,14,22.48,1.27,0.0,79.69,18.52,17.63,28.15,93.08
2022,15,22.94,0.8,0.0,75.94,19.51,18.71,28.0,93.16
2022,16,22.15,2.11,0.38,81.12,17.34,17.65,27.82,93.29
2022,17,21.82,2.34,0.18,79.81,18.09,17.76,27.89,93.43
2022,18,21.13,1.92,0.0,78.06,18.43,16.26,27.12,93.39
2022,19,20.94,1.46,0.0,74.62,20.69,15.4,28.02,93.23
2022,20,20.79,1.08,0.0,67.69,21.38,14.54,28.58,93.07
2022,21,21.73,1.05,0.0,65.69,21.51,14.01,29.5,93.09
2022,22,21.44,1.59,0.0,67.38,21.97,13.91,29.7,92.97
2022,23,20.8,1.46,0.01,70.94,22.21,15.19,29.28,92.95
2022,24,21.08,1.15,0.0,65.12,22.84,13.54,28.68,92.91
2022,25,21.65,1.15,0.12,75.44,20.15,15.68,28.16,92.91
2022,26,22.33,2.25,0.15,78.75,17.52,18.66,28.16,92.94
2022,27,22.01,2.45,0.28,75.31,16.47,17.55,27.87,93.02
2022,28,21.39,2.76,0.27,75.5,13.73,16.14,28.48,93.16
2022,29,21.87,2.63,0.02,76.38,15.86,16.01,29.19,93.24
2022,30,23.18,1.1,0.0,75.19,18.3,16.76,30.34,93.15
2022,31,23.95,0.98,0.0,72.5,20.46,18.24,31.12,93.08
2022,32,23.57,1.48,0.0,72.62,19.26,18.35,31.12,93.03
2022,33,22.56,1.49,0.0,67.81,20.88,16.78,31.18,93.1
2022,34,22.0,1.29,0.0,69.19,17.82,14.78,30.44,93.07
2022,35,23.08,1.52,0.0,63.38,22.33,17.01,31.44,92.94
2022,36,22.91,1.78,0.0,69.0,22.13,15.52,30.65,93.0
2022,37,23.26,2.37,0.0,72.5,17.54,18.53,30.05,93.23
2022,38,22.98,1.52,0.0,70.81,19.37,17.47,30.62,93.26
2022,39,22.91,1.55,0.0,67.75,19.77,16.5,31.06,93.15
2022,40,22.34,2.42,0.0,66.31,21.92,16.27,31.4,93.12
2022,41,21.82,2.0,0.0,58.94,22.79,14.12,31.62,93.09
2022,42,22.15,3.03,0.0,61.25,23.18,14.8,31.23,93.1
2022,43,22.8,2.7,0.0,64.19,22.78,16.69,30.83,93.06
2022,44,22.3,2.27,0.0,63.94,21.76,16.59,30.71,92.97
2022,45,22.64,1.9,0.0,64.88,19.23,15.84,31.2,92.99
2022,46,23.12,1.84,0.0,65.69,18.12,16.79,31.03,92.97
2022,47,23.42,1.29,0.0,62.38,19.22,15.9,31.46,92.83
2022,48,23.47,1.87,0.0,60.81,21.52,16.9,31.53,92.75
2022,49,23.27,2.53,0.0,62.38,22.77,16.69,31.8,92.9
2022,50,23.37,2.66,0.0,61.44,23.49,15.59,32.15,93.11
2022,51,24.29,1.22,0.0,58.62,23.24,16.32,33.4,93.05
2022,52,25.26,1.04,0.0,61.38,23.16,16.83,33.77,92.95
2022,53,25.48,2.23,0.0,57.56,19.96,19.45,33.15,93.07
2022,54,23.95,2.84,0.0,59.88,23.62,18.0,32.69,93.31
2022,55,23.02,2.08,0.0,56.88,25.41,15.76,32.45,93.37
2022,56,23.12,2.36,0.0,52.38,25.49,15.08,33.82,93.29
2022,57,22.38,2.41,0.0,58.06,26.34,13.27,32.48,93.28
2022,58,24.15,2.29,0.0,60.0,25.67,17.98,32.84,93.28
2022,59,23.67,1.96,0.0,53.75,26.07,16.8,32.84,93.26
2022,60,23.99,2.46,0.0,51.38,25.68,15.48,33.17,93.25
2022,61,23.51,2.72,0.0,42.56,23.1,14.76,33.3,93.21
2022,62,23.45,3.2,0.0,44.25,24.64,14.01,33.17,93.17
2022,63,24.21,3.01,0.0,39.12,25.2,15.04,34.38,93.14
2022,64,24.8,3.1,0.0,49.06,25.45,15.83,33.48,93.09
2022,65,24.93,3.58,0.01,53.12,23.11,17.54,32.66,93.05
2022,66,24.03,3.17,0.39,57.06,14.86,16.61,32.16,93.08
2022,67,25.64,2.62,0.02,51.44,24.38,17.48,34.44,93.09
2022,68,26.37,2.14,0.0,47.12,24.28,18.02,36.04,93.04
2022,69,26.37,2.73,0.0,41.19,25.45,18.87,35.39,93.0
2022,70,26.0,3.02,0.0,37.12,24.69,17.03,35.73,92.97
2022,71,26.16,3.04,0.0,34.62,25.92,16.9,36.08,92.91
2022,72,25.9,3.04,0.0,35.94,24.43,18.11,35.55,92.97
2022,73,27.02,2.31,0.0,38.81,23.58,18.58,36.5,92.98
2022,74,27.75,1.66,0.0,37.62,21.46,19.46,37.15,92.88
2022,75,27.53,1.89,0.0,35.5,22.11,19.18,37.13,92.81
2022,76,28.05,2.16,0.0,30.62,21.19,19.46,37.93,92.78
2022,77,28.38,1.84,0.0,33.38,22.13,19.34,37.45,92.75
2022,78,29.27,1.41,0.01,34.81,20.94,21.34,37.01,92.73
2022,79,27.38,2.01,1.05,56.25,17.5,22.63,33.26,92.76
2022,80,27.75,1.14,8.17,58.75,21.36,22.0,34.79,92.8
2022,81,27.23,1.35,6.16,64.62,17.33,21.76,33.86,92.82
2022,82,27.84,1.73,0.94,59.56,17.87,21.96,34.34,92.77
2022,83,27.82,0.94,0.35,60.06,17.32,21.89,34.01,92.79
2022,84,27.86,1.49,0.29,55.94,16.76,21.56,34.96,92.85
2022,85,28.36,1.77,0.23,55.25,20.18,20.52,36.28,93.03
2022,86,28.98,2.58,0.08,52.62,21.49,21.94,37.48,93.05
2022,87,29.05,2.58,0.0,51.25,22.46,21.71,37.16,93.02
2022,88,29.69,1.97,0.02,47.44,22.15,21.54,37.48,92.9
2022,89,30.21,1.89,0.14,43.56,20.72,22.67,37.23,92.86
2022,90,30.46,2.29,0.0,41.12,21.83,23.76,37.33,92.9
2022,91,30.08,2.71,0.14,40.0,19.16,23.3,37.66,92.91
2022,92,29.07,2.34,0.21,44.12,20.67,21.65,37.23,93.0
2022,93,29.13,2.84,0.0,45.19,23.08,21.93,37.8,92.95
2022,94,29.14,2.91,0.0,47.56,23.37,21.59,37.82,93.01
2022,95,28.5,3.09,0.0,46.62,22.77,20.94,37.55,93.17
2022,96,28.77,2.68,0.12,44.44,22.64,19.32,38.18,93.16
2022,97,28.55,2.7,2.82,48.81,24.35,21.45,36.33,93.07
2022,98,28.6,2.44,1.93,53.62,22.07,21.83,36.24,92.98
2022,99,28.94,2.39,0.29,52.62,21.7,21.43,37.33,92.89
2022,100,29.19,2.55,0.01,45.19,16.24,21.75,38.21,92.84
2022,101,28.34,2.1,0.01,48.81,22.72,20.73,36.69,92.81
2022,102,29.48,2.38,0.13,47.69,19.71,22.19,38.04,92.71
2022,103,27.83,2.5,3.38,58.38,14.57,23.29,33.75,92.71
2022,104,25.22,1.48,17.83,69.38,15.79,20.59,30.92,92.82
2022,105,28.32,0.78,0.18,58.25,24.19,20.94,36.07,92.73
2022,106,29.15,1.32,2.61,58.5,24.65,21.9,36.32,92.64
2022,107,27.8,1.62,14.83,66.88,24.11,23.18,34.06,92.76
2022,108,27.4,1.81,10.1,65.12,20.67,22.12,34.63,92.9
2022,109,27.33,1.7,1.64,65.44,22.62,22.15,34.26,93.02
2022,110,28.37,1.96,0.03,58.44,23.98,21.29,36.49,92.86
2022,111,27.68,2.34,0.0,62.56,24.94,22.68,34.62,92.8
2022,112,27.06,2.32,0.07,65.06,23.81,22.26,33.79,92.9
2022,113,25.98,2.34,5.03,69.88,19.83,22.54,31.15,92.98
2022,114,28.03,1.74,0.08,55.5,22.62,20.69,36.58,92.83
2022,115,27.81,1.79,0.0,57.19,25.32,20.48,35.75,92.77
2022,116,28.69,1.77,0.0,51.12,24.9,21.44,37.3,92.79
2022,117,28.69,2.26,0.0,55.31,25.6,21.08,36.95,92.79
2022,118,28.94,1.75,0.0,55.06,25.46,21.33,37.07,92.84
2022,119,30.17,2.51,0.1,50.25,24.15,22.19,38.84,92.83
2022,120,30.05,1.45,0.35,55.56,23.69,23.11,37.18,92.74
2022,121,30.31,1.38,7.43,56.75,21.1,23.74,36.9,92.61
2022,122,29.44,1.83,6.38,62.62,23.91,22.83,36.4,92.6
2022,123,28.3,1.54,5.79,65.75,24.16,23.67,34.48,92.72
2022,124,28.87,1.59,1.44,62.56,21.87,23.19,35.55,92.78
2022,125,27.46,2.0,1.71,66.88,18.58,22.69,34.05,92.76
2022,126,27.77,1.41,4.01,63.38,22.86,21.51,34.6,92.71
2022,127,28.33,1.39,14.17,63.81,21.49,22.02,35.23,92.65
2022,128,28.31,1.73,1.77,64.62,20.11,22.07,35.74,92.52
2022,129,27.99,2.23,4.66,66.75,16.4,22.76,35.15,92.4
2022,130,27.19,3.65,3.66,68.12,7.51,22.61,33.31,92.38
2022,131,26.07,4.88,4.91,71.12,13.12,22.06,32.13,92.46
2022,132,24.56,3.74,4.53,77.44,6.82,21.37,30.01,92.58
2022,133,25.94,3.05,1.79,73.19,12.7,20.89,32.55,92.53
2022,134,25.83,2.24,4.74,74.81,15.96,20.98,32.5,92.58
2022,135,24.17,1.79,26.03,87.25,19.35,22.25,26.55,92.66
2022,136,25.56,2.06,22.0,81.81,11.67,22.3,30.14,92.61
2022,137,25.98,0.81,42.64,72.44,14.31,21.98,30.14,92.52
2022,138,25.44,1.3,9.36,79.12,12.67,21.33,30.46,92.49
2022,139,23.56,3.27,1.41,85.81,7.78,20.25,26.5,92.59
2022,140,22.9,4.08,0.59,79.19,17.89,18.97,28.42,92.79
2022,141,24.31,4.07,0.86,75.56,18.13,18.61,30.94,92.73
2022,142,24.86,3.94,0.04,76.69,18.12,20.21,31.36,92.61
2022,143,26.02,3.12,0.0,75.69,23.34,20.28,32.78,92.53
2022,144,26.87,2.42,0.01,73.0,25.16,21.65,33.23,92.74
2022,145,26.95,1.5,0.63,71.5,21.3,21.83,32.07,92.88
2022,146,25.63,2.12,0.49,76.25,21.85,21.92,30.03,92.9
2022,147,25.35,2.82,0.19,75.38,25.16,21.12,31.03,92.88
2022,148,25.37,3.31,0.06,74.19,25.68,21.15,30.98,92.8
2022,149,25.08,2.88,0.12,69.75,26.11,19.18,31.65,92.77
2022,150,25.62,2.37,6.04,72.81,21.86,20.75,31.58,92.71
2022,151,24.63,2.55,4.33,78.56,20.8,20.98,29.54,92.66
2022,152,24.52,2.98,0.14,77.0,21.04,21.22,28.87,92.64
2022,153,25.73,2.18,0.05,73.06,21.84,21.01,32.48,92.64
2022,154,25.42,1.9,2.56,74.38,23.79,20.25,30.93,92.62
2022,155,25.19,2.18,3.91,75.81,24.15,21.33,30.37,92.67
2022,156,26.06,1.34,5.09,73.62,22.3,21.84,31.05,92.66
2022,157,24.78,1.48,6.23,79.19,21.18,21.53,29.79,92.7
2022,158,25.36,2.2,1.29,75.88,15.62,21.36,30.83,92.74
2022,159,24.98,3.36,0.05,75.75,23.44,21.33,30.09,92.73
2022,160,25.59,3.24,0.05,71.56,22.74,20.76,32.07,92.66
2022,161,25.39,3.77,0.09,72.38,21.15,20.05,32.44,92.74
2022,162,25.26,3.69,0.1,69.31,21.99,19.94,32.12,92.8
2022,163,24.43,3.12,0.89,69.75,23.01,19.92,29.92,92.79
2022,164,24.7,2.42,1.28,73.31,22.08,19.4,31.12,92.84
2022,165,25.12,2.55,8.65,76.56,24.72,20.66,30.9,92.79
2022,166,23.8,2.43,24.45,81.81,18.0,20.53,28.3,92.74
2022,167,23.52,1.61,10.96,83.69,21.38,21.61,26.19,92.74
2022,168,22.8,1.45,34.89,82.44,21.58,20.58,26.01,92.74
2022,169,22.9,1.45,3.5,85.81,18.65,20.35,25.8,92.76
2022,170,23.83,1.83,11.84,85.0,20.23,20.62,27.58,92.76
2022,171,23.84,2.89,4.78,78.38,19.08,19.54,29.36,92.69
2022,172,23.86,2.98,2.03,81.31,17.55,20.54,28.96,92.59
2022,173,23.52,2.4,0.52,82.81,14.2,19.67,28.6,92.7
2022,174,24.05,2.57,0.04,79.06,15.88,19.97,28.92,92.77
2022,175,23.16,3.71,0.04,81.56,21.47,20.41,27.05,92.74
2022,176,23.56,4.05,0.34,78.81,14.61,19.79,28.74,92.53
2022,177,23.76,4.14,0.02,78.38,19.3,19.98,29.37,92.58
2022,178,24.37,3.73,0.0,76.19,17.6,20.24,29.65,92.72
2022,179,24.7,3.18,0.05,76.44,18.41,20.55,30.59,92.72
2022,180,24.84,2.97,2.31,78.38,20.16,20.58,30.4,92.58
2022,181,24.19,3.52,3.56,81.06,15.59,20.9,28.98,92.6
2022,182,23.83,3.39,1.67,82.75,17.46,20.58,28.35,92.61
2022,183,23.68,3.48,0.59,82.44,17.96,20.12,27.95,92.53
2022,184,24.18,3.88,0.09,80.38,14.95,20.99,28.9,92.53
2022,185,23.73,4.97,0.56,79.06,14.2,20.48,27.94,92.54
2022,186,23.25,4.62,0.85,81.25,12.8,20.29,27.17,92.5
2022,187,23.44,4.23,0.96,79.5,9.81,20.51,27.83,92.61
2022,188,23.03,4.39,5.05,82.0,11.49,20.01,27.57,92.81
2022,189,23.42,4.82,1.56,78.88,14.76,19.87,28.32,92.73
2022,190,23.32,4.61,3.39,83.0,11.39,20.24,27.65,92.56
2022,191,23.95,5.03,0.95,77.94,12.6,19.78,29.56,92.58
2022,192,24.13,4.97,1.78,77.5,10.5,20.56,29.27,92.74
2022,193,23.78,5.73,0.7,77.0,16.94,20.51,28.73,92.73
2022,194,23.87,6.7,1.02,75.5,14.24,20.6,29.3,92.52
2022,195,23.5,7.0,0.52,74.44,12.86,20.21,28.08,92.44
2022,196,24.04,5.4,0.17,75.56,15.03,20.39,29.37,92.55
2022,197,24.32,4.48,14.07,79.5,15.01,20.4,29.77,92.63
2022,198,24.1,4.91,2.94,78.69,15.51,20.08,30.15,92.72
2022,199,23.17,3.68,5.3,80.75,13.05,19.97,27.01,92.79
2022,200,23.74,2.32,0.48,80.62,22.4,19.99,28.4,92.79
2022,201,25.01,1.8,20.85,79.12,19.53,20.9,29.62,92.75
2022,202,24.15,1.9,10.76,83.44,18.06,21.2,28.09,92.72
2022,203,23.29,2.52,14.7,85.69,13.95,20.95,26.83,92.75
2022,204,23.57,3.13,0.1,81.19,15.15,20.0,28.59,92.71
2022,205,23.48,3.1,0.03,81.12,14.99,19.8,27.76,92.72
2022,206,23.99,2.51,1.88,79.5,19.91,20.08,28.89,92.8
2022,207,23.62,2.45,7.18,81.12,17.5,20.32,28.52,92.84
2022,208,23.41,1.46,8.63,85.62,16.85,20.66,27.2,92.78
2022,209,24.48,1.02,1.62,79.25,20.99,20.51,28.8,92.83
2022,210,24.08,1.12,6.77,78.44,21.63,20.26,27.62,92.85
2022,211,25.16,0.65,11.82,74.44,22.27,19.98,30.2,92.72
2022,212,24.46,0.98,12.33,84.31,19.26,21.38,28.18,92.54
2022,213,24.37,1.81,31.18,84.19,20.42,21.38,28.76,92.5
2022,214,24.29,1.78,15.03,83.06,16.73,20.36,28.38,92.41
2022,215,22.66,2.23,23.3,85.69,11.84,19.88,26.05,92.43
2022,216,22.48,1.16,14.8,89.69,8.67,20.04,25.83,92.41
2022,217,23.33,4.96,2.94,83.19,11.7,20.38,27.41,92.55
2022,218,22.99,5.15,2.87,83.25,12.91,19.26,27.67,92.49
2022,219,22.9,5.16,2.91,84.75,11.71,19.63,27.34,92.46
2022,220,23.15,5.48,1.34,83.75,12.82,20.19,27.51,92.41
2022,221,23.26,5.95,0.52,79.69,14.37,19.65,28.24,92.43
2022,222,22.81,5.18,0.16,80.25,18.06,18.75,28.23,92.45
2022,223,23.33,4.54,0.36,81.19,17.14,18.81,29.4,92.58
2022,224,23.55,4.04,0.11,81.06,17.85,19.06,29.57,92.72
2022,225,22.82,3.19,0.0,82.25,20.23,19.26,27.73,92.78
2022,226,23.72,3.59,0.0,78.31,16.77,18.76,30.03,92.8
2022,227,24.43,2.66,0.0,78.31,18.92,19.35,30.11,92.88
2022,228,25.58,1.29,0.0,72.88,23.78,20.56,30.4,92.86
2022,229,24.87,1.84,0.37,79.38,21.76,20.58,29.67,92.88
2022,230,23.81,2.77,153.05,84.88,18.13,20.87,27.69,92.82
2022,231,23.95,3.17,29.2,83.56,17.64,20.01,28.64,92.79
2022,232,23.53,3.12,0.01,83.94,17.98,19.67,28.32,92.83
2022,233,23.69,3.27,5.24,84.5,16.79,19.38,28.62,92.76
2022,234,23.7,3.61,2.73,84.56,16.11,20.4,28.23,92.72
2022,235,23.83,3.4,1.62,83.38,19.81,19.55,28.98,92.73
2022,236,23.21,2.88,7.54,85.44,15.48,20.09,27.32,92.84
2022,237,23.08,2.39,18.04,85.38,14.39,19.88,26.9,92.75
2022,238,22.8,2.33,36.54,89.31,15.56,19.99,26.12,92.65
2022,239,22.67,2.38,14.81,89.25,15.09,20.42,25.79,92.67
2022,240,23.23,2.06,17.18,86.25,20.22,19.58,27.55,92.65
2022,241,23.38,1.76,26.06,89.81,13.34,21.28,26.49,92.7
2022,242,23.98,1.82,1.4,87.81,18.78,20.83,28.23,92.73
2022,243,22.88,1.54,4.66,90.94,17.68,20.63,26.35,92.72
2022,244,23.44,0.94,3.64,84.44,11.54,20.02,28.29,92.7
2022,245,23.66,1.47,5.8,85.75,18.27,20.19,27.76,92.78
2022,246,24.91,0.73,5.17,82.81,21.11,20.37,30.05,92.77
2022,247,23.97,1.29,34.2,89.69,19.78,21.56,26.64,92.75
2022,248,24.28,0.87,18.74,86.81,21.84,21.21,27.55,92.71
2022,249,23.58,1.41,21.97,85.0,18.32,20.87,26.76,92.68
2022,250,22.97,1.4,9.0,88.5,15.32,20.05,26.56,92.72
2022,251,22.74,2.34,4.5,88.75,10.8,19.84,26.38,92.7
2022,252,23.09,2.34,0.39,88.88,16.44,19.87,27.19,92.66
2022,253,23.03,3.39,1.63,87.19,13.58,19.73,27.73,92.68
2022,254,22.48,3.42,0.1,87.94,14.31,19.72,26.47,92.63
2022,255,22.71,3.73,0.0,86.0,18.65,19.15,27.89,92.63
2022,256,23.12,2.72,1.51,87.0,16.89,18.86,28.19,92.85
2022,257,23.4,2.31,3.64,86.62,18.94,19.61,27.84,93.04
2022,258,22.58,2.35,0.46,87.44,18.58,19.05,26.98,93.1
2022,259,23.16,2.44,0.01,86.5,20.12,19.31,27.48,92.93
2022,260,22.96,2.24,0.04,86.94,23.08,19.42,27.74,92.91
2022,261,23.49,2.38,0.19,84.75,21.76,19.07,28.05,92.93
2022,262,23.21,2.67,0.02,86.62,19.01,20.05,27.09,92.9
2022,263,22.32,2.56,0.0,82.19,20.12,18.16,27.71,92.88
2022,264,22.89,2.45,0.02,84.0,21.46,18.05,28.49,92.86
2022,265,22.92,2.62,0.0,81.81,23.43,18.26,28.52,92.92
2022,266,21.81,2.23,0.0,85.69,22.9,18.54,25.9,92.99
2022,267,23.15,2.44,1.67,83.75,21.67,18.58,28.41,92.93
2022,268,23.73,2.09,1.99,81.25,22.78,19.01,29.0,92.81
2022,269,24.0,1.95,2.21,84.94,17.07,19.88,28.93,92.85
2022,270,22.28,1.95,1.51,88.5,17.62,19.96,24.98,92.81
2022,271,23.33,1.98,1.39,84.31,15.85,19.91,28.04,92.71
2022,272,22.56,1.95,1.06,86.88,16.95,20.05,26.69,92.72
2022,273,21.93,2.44,7.22,89.44,15.03,19.64,25.49,92.79
2022,274,22.06,2.76,3.95,87.56,12.02,19.14,26.25,92.81
2022,275,22.44,2.77,0.5,85.25,14.33,18.5,27.48,92.78
2022,276,22.73,2.75,0.01,85.81,13.05,19.37,26.72,92.75
2022,277,22.62,2.18,0.05,88.62,17.58,20.18,26.19,92.72
2022,278,22.7,2.02,11.53,88.94,15.0,19.98,26.33,92.66
2022,279,22.81,2.19,0.5,84.25,13.49,20.15,27.08,92.66
2022,280,22.9,1.55,0.27,84.75,21.54,19.04,27.52,92.76
2022,281,22.0,1.5,2.58,86.19,18.45,18.51,25.45,92.88
2022,282,22.98,1.56,10.38,87.94,11.75,19.44,27.01,92.89
2022,283,23.77,1.7,25.54,88.81,12.25,20.91,27.81,92.93
2022,284,23.55,1.69,7.53,89.0,12.33,20.3,27.39,92.93
2022,285,23.89,0.91,3.25,86.62,13.64,20.59,27.76,92.96
2022,286,23.92,0.91,15.44,86.88,17.34,21.01,28.35,92.9
2022,287,24.15,0.97,9.44,85.12,17.67,20.62,29.05,92.82
2022,288,23.74,1.28,19.26,87.38,14.69,20.26,28.66,92.71
2022,289,23.84,1.59,20.93,87.94,14.7,20.4,27.98,92.93
2022,290,23.92,1.62,6.75,89.19,17.25,20.96,27.87,93.06
2022,291,22.84,1.22,6.7,90.75,17.58,20.81,25.55,93.1
2022,292,22.93,0.91,17.76,86.88,18.35,20.14,26.42,93.04
2022,293,23.6,1.24,15.61,85.56,18.62,19.9,28.02,93.05
2022,294,23.07,1.51,2.12,87.44,16.48,20.44,26.94,93.19
2022,295,23.04,1.66,1.1,86.25,18.49,19.59,27.62,93.22
2022,296,22.25,1.6,0.02,83.88,21.56,17.84,27.78,93.15
2022,297,20.28,1.99,0.0,77.25,22.7,15.61,26.55,93.03
2022,298,20.14,1.45,0.0,71.12,24.0,14.2,27.18,93.08
2022,299,20.69,1.05,0.0,70.06,23.04,14.37,27.31,93.17
2022,300,20.5,1.43,0.02,76.38,23.18,13.92,27.3,93.16
2022,301,21.89,1.61,0.9,85.69,15.74,17.01,27.35,93.05
2022,302,22.53,2.09,2.73,87.56,13.01,18.38,27.13,93.04
2022,303,22.5,1.81,0.3,86.19,12.73,18.26,27.25,93.05
2022,304,21.37,1.55,0.01,87.88,19.47,19.06,24.79,93.07
2022,305,21.32,1.71,9.63,91.25,9.89,18.91,25.1,93.1
2022,306,20.9,1.93,6.59,88.69,9.68,17.55,25.72,93.09
2022,307,21.13,2.02,6.95,85.5,11.14,16.08,26.57,93.06
2022,308,21.31,2.16,3.41,87.06,13.84,17.69,26.45,93.2
2022,309,21.33,1.93,1.32,84.12,19.05,17.15,26.69,93.31
2022,310,21.33,1.84,0.76,88.75,13.97,17.57,26.12,93.34
2022,311,21.21,1.73,0.08,82.75,21.15,17.14,26.73,93.26
2022,312,21.98,1.8,0.0,87.25,19.6,18.17,27.08,93.24
2022,313,22.39,1.64,0.0,84.0,18.81,18.12,27.62,93.2
2022,314,22.32,1.7,1.92,84.0,18.89,17.72,27.69,93.12
2022,315,20.71,2.56,13.67,89.56,4.7,18.13,24.33,93.09
2022,316,21.0,2.44,15.45,92.12,6.04,19.1,24.43,93.07
2022,317,21.39,2.33,3.7,89.62,10.84,17.8,26.04,93.12
2022,318,21.62,1.4,1.06,88.31,16.75,17.91,25.95,93.23
2022,319,22.01,1.3,0.86,88.12,15.65,19.01,26.93,93.22
2022,320,21.67,1.32,0.0,86.25,17.72,17.83,26.83,93.1
2022,321,19.89,1.59,0.0,78.0,18.84,14.84,26.59,93.08
2022,322,18.8,1.58,0.0,74.12,20.96,12.36,26.23,93.13
2022,323,18.86,1.77,0.0,78.75,18.78,14.22,25.2,93.12
2022,324,18.46,1.37,0.0,75.88,16.72,12.33,24.56,92.99
2022,325,18.26,1.52,0.01,83.44,19.78,13.83,22.79,92.98
2022,326,20.97,1.27,1.73,87.94,9.18,16.2,26.43,92.96
2022,327,22.08,1.0,7.29,87.5,9.76,17.87,27.17,92.99
2022,328,22.2,1.83,3.19,88.38,7.57,18.78,26.93,93.05
2022,329,22.04,1.69,0.81,86.88,16.79,18.56,26.71,93.15
2022,330,22.13,1.44,0.13,86.12,18.44,18.33,27.51,93.07
2022,331,22.57,0.98,0.38,85.19,14.89,18.78,27.8,92.92
2022,332,22.85,0.8,0.49,86.0,12.44,18.6,28.21,92.94
2022,333,22.23,1.54,0.28,85.12,13.28,18.05,27.11,93.03
2022,334,19.83,1.48,0.01,79.69,18.59,15.37,26.17,93.12
2022,335,21.44,1.71,0.89,88.25,12.67,15.86,26.98,93.09
2022,336,22.44,1.7,0.38,86.19,15.63,19.12,27.83,93.04
2022,337,22.22,1.92,0.06,86.0,18.75,18.47,27.55,93.07
2022,338,21.77,1.93,0.15,87.94,18.37,18.98,25.97,93.15
2022,339,21.32,1.86,0.28,87.62,14.75,17.78,27.13,93.19
2022,340,21.45,1.51,0.0,84.81,11.06,17.65,26.79,93.11
2022,341,19.94,1.72,0.0,80.81,14.17,16.23,26.19,93.04
2022,342,18.16,1.91,0.14,78.38,13.15,13.78,23.82,92.94
2022,343,18.25,3.02,3.53,84.38,8.63,15.08,22.29,92.75
2022,344,19.69,4.28,26.52,92.88,5.88,17.58,21.62,92.44
2022,345,21.23,2.43,9.05,93.62,7.32,19.14,23.81,92.68
2022,346,21.82,2.17,21.9,91.56,9.42,19.87,25.24,92.82
2022,347,21.81,2.66,9.26,90.06,12.64,19.33,25.62,93.04
2022,348,21.44,2.07,1.24,87.44,13.99,18.36,26.24,93.18
2022,349,20.75,1.71,0.04,80.5,21.5,15.69,26.83,93.1
2022,350,19.79,1.65,0.0,76.5,21.59,13.76,27.3,93.05
2022,351,20.43,1.78,0.0,84.25,19.26,15.43,26.84,93.1
2022,352,21.18,2.09,0.0,86.94,14.51,16.94,27.01,93.04
2022,353,19.02,1.91,0.0,83.31,19.07,15.29,24.83,92.98
2022,354,19.87,1.65,0.0,82.62,18.67,14.07,27.3,92.95
2022,355,19.37,1.62,0.0,75.75,19.43,14.65,26.53,92.98
2022,356,18.66,1.8,0.0,76.5,21.41,11.73,26.93,93.01
2022,357,20.12,1.71,0.0,84.0,20.57,14.2,27.75,92.97
2022,358,21.31,1.65,0.01,83.31,20.34,16.74,27.66,93.07
2022,359,21.87,2.64,6.28,87.56,8.54,17.22,27.94,93.09
2022,360,21.78,2.63,1.57,88.0,10.3,18.48,26.69,93.24
2022,361,21.71,2.28,0.86,88.06,10.62,17.62,26.8,93.34
2022,362,22.0,1.81,0.1,86.44,19.01,18.36,27.33,93.45
2022,363,21.42,1.69,0.0,82.75,20.51,17.17,27.47,93.56
2022,364,20.13,1.52,0.0,78.88,21.53,15.49,26.91,93.61
2022,365,19.66,1.1,0.0,72.88,21.35,14.15,26.56,93.57
2023,1,19.08,1.44,0.0,76.94,20.57,13.03,26.64,93.48
2023,2,19.1,2.02,0.0,81.44,20.95,13.37,25.95,93.46
2023,3,19.5,1.83,0.0,81.69,18.68,14.85,25.61,93.49
2023,4,19.82,1.97,0.0,81.44,18.74,15.07,26.01,93.41
2023,5,19.41,2.41,0.0,80.75,15.31,15.02,25.37,93.44
2023,6,19.46,2.64,0.0,82.31,17.73,14.17,26.05,93.55
2023,7,19.97,2.4,0.0,81.69,16.9,15.01,26.2,93.46
2023,8,20.25,1.76,0.0,80.56,16.81,15.9,26.31,93.37
2023,9,19.05,1.74,0.0,72.75,19.87,13.43,26.1,93.47
2023,10,17.4,2.09,0.0,75.5,22.12,10.37,26.04,93.43
2023,11,18.01,1.48,0.0,71.81,22.63,12.25,26.67,93.29
2023,12,18.69,1.35,0.0,66.12,22.48,11.66,27.9,93.17
2023,13,19.06,1.1,0.0,70.94,19.39,12.53,27.87,93.2
2023,14,18.67,1.13,0.0,68.88,21.65,12.01,27.87,93.2
2023,15,18.61,1.18,0.0,69.81,22.47,11.91,27.94,93.14
2023,16,19.07,1.47,0.0,69.25,22.04,12.34,28.59,93.18
2023,17,18.76,1.28,0.0,72.19,22.69,12.48,28.48,93.25
2023,18,18.87,1.69,0.0,74.06,22.47,13.06,27.68,93.36
2023,19,18.92,1.83,0.0,70.75,22.93,13.18,27.97,93.35
2023,20,19.07,2.08,0.0,78.81,20.05,12.93,26.39,93.35
2023,21,20.23,1.92,0.0,75.94,17.27,15.18,27.31,93.27
2023,22,19.78,2.17,0.0,71.31,19.37,14.59,27.33,93.2
2023,23,20.93,2.27,0.11,78.88,16.78,15.14,28.16,93.13
2023,24,21.69,1.86,0.44,77.12,13.08,16.65,28.34,93.15
2023,25,20.51,1.78,0.05,72.94,20.51,15.39,28.63,93.14
2023,26,20.04,1.82,0.0,71.69,21.72,14.15,28.58,93.14
2023,27,19.74,2.07,0.0,68.31,21.8,14.26,28.48,93.16
2023,28,19.3,2.22,0.0,66.0,22.94,11.66,28.92,93.12
2023,29,19.98,2.31,0.0,69.88,21.69,11.18,28.92,93.03
2023,30,21.75,1.99,0.0,76.12,15.04,16.28,28.87,93.11
2023,31,22.17,2.15,0.0,69.38,17.66,16.8,30.2,93.07
2023,32,22.4,2.44,0.0,65.38,19.62,16.89,30.43,93.08
2023,33,22.05,2.8,0.0,64.31,14.64,16.16,28.98,93.12
2023,34,22.83,2.59,0.05,68.69,10.49,16.38,30.6,93.13
2023,35,23.17,2.73,0.97,66.19,22.11,17.74,31.52,93.08
2023,36,22.97,1.93,0.0,60.88,23.16,15.18,32.31,93.04
2023,37,22.19,1.65,0.0,64.19,22.09,14.97,31.26,93.1
2023,38,22.01,0.98,0.0,63.44,22.85,14.88,30.41,93.09
2023,39,22.68,1.83,0.0,63.25,21.37,14.44,32.19,93.09
2023,40,22.5,1.95,0.0,62.06,22.26,15.58,31.63,93.17
2023,41,22.72,2.04,0.0,61.38,23.1,15.79,32.09,93.23
2023,42,22.48,2.0,0.0,57.69,22.1,14.66,32.43,93.25
2023,43,23.23,2.11,0.0,52.56,24.75,16.59,33.42,93.27
2023,44,22.71,2.45,0.0,50.75,24.66,14.59,33.33,93.29
2023,45,22.44,1.9,0.0,54.5,24.65,14.92,32.85,93.24
2023,46,22.64,1.89,0.0,52.62,24.69,15.49,33.08,93.12
2023,47,22.39,2.54,0.0,55.88,24.67,14.35,32.82,93.15
2023,48,22.09,2.25,0.0,58.38,24.59,13.88,32.22,93.2
2023,49,22.23,1.87,0.0,59.75,24.73,14.69,32.04,93.23
2023,50,22.74,1.84,0.0,59.44,24.38,14.85,32.48,93.24
2023,51,23.05,1.38,0.0,54.62,24.75,14.83,33.11,93.23
2023,52,23.28,1.75,0.0,52.06,25.1,15.48,33.43,93.25
2023,53,23.2,2.38,0.0,52.69,24.61,14.93,33.5,93.22
2023,54,22.05,2.58,0.0,53.62,26.12,13.39,32.86,93.22
2023,55,22.52,2.02,0.0,49.5,25.94,13.63,33.67,93.27
2023,56,23.18,2.49,0.0,43.62,26.15,13.6,34.26,93.4
2023,57,23.01,2.78,0.0,46.12,25.56,13.8,33.41,93.47
2023,58,22.15,2.71,0.0,51.12,26.5,13.76,32.4,93.48
2023,59,22.64,2.64,0.0,54.69,24.4,12.26,31.62,93.48
2023,60,24.89,2.94,0.0,59.06,22.16,18.83,32.63,93.45
2023,61,23.07,3.04,0.0,47.38,26.4,14.83,33.02,93.54
2023,62,22.83,3.34,0.0,46.5,26.69,12.74,33.4,93.57
2023,63,23.45,3.21,0.0,41.81,26.04,13.59,34.15,93.56
2023,64,24.05,3.05,0.0,39.38,26.02,14.87,34.46,93.5
2023,65,23.88,3.12,0.0,40.0,26.78,14.19,33.73,93.36
2023,66,24.1,2.98,0.0,41.0,21.41,14.89,33.9,93.31
2023,67,24.42,3.14,0.0,45.5,26.24,15.75,33.84,93.28
2023,68,24.15,2.7,0.0,46.88,20.06,15.43,33.37,93.25
2023,69,24.69,3.0,0.0,45.25,22.01,15.44,33.6,93.21
2023,70,25.21,2.97,0.0,47.62,25.42,16.01,34.98,93.18
2023,71,25.18,3.06,0.0,50.44,26.13,16.63,34.51,93.21
2023,72,26.05,2.88,0.0,50.56,24.59,17.01,35.02,93.1
2023,73,26.65,2.11,0.0,42.62,23.63,18.08,35.55,92.98
2023,74,27.23,2.32,0.0,45.94,23.18,18.3,35.9,92.91
2023,75,27.1,1.88,0.2,55.94,19.08,20.9,34.23,93.02
2023,76,25.49,1.78,10.91,66.75,19.8,21.5,31.91,93.0
2023,77,25.68,2.45,5.94,69.25,20.72,20.5,32.56,92.96
2023,78,26.23,1.59,4.69,64.94,20.57,20.08,33.35,92.85
2023,79,26.3,1.8,1.43,58.62,23.5,19.62,34.62,92.79
2023,80,26.28,1.65,0.01,44.06,26.41,17.12,35.79,92.81
2023,81,26.08,0.97,0.0,45.75,24.68,16.15,35.08,92.86
2023,82,28.13,1.15,0.66,47.19,23.61,20.72,35.66,92.86
2023,83,27.47,1.52,2.73,58.38,21.46,21.21,33.5,92.91
2023,84,26.39,2.19,3.95,68.0,19.05,21.55,32.69,93.03
2023,85,27.0,1.06,1.14,63.06,19.17,22.13,33.19,93.01
2023,86,27.2,1.08,0.58,60.81,23.7,21.62,34.18,92.96
2023,87,28.71,1.48,0.17,51.44,24.95,21.35,36.4,92.94
2023,88,28.5,1.91,1.41,55.0,19.46,21.18,36.23,93.02
2023,89,28.58,1.2,0.66,52.38,19.77,21.73,35.37,92.98
2023,90,29.11,1.13,0.0,46.25,23.24,22.03,36.05,92.92
2023,91,28.54,1.55,0.55,50.81,21.68,23.01,34.65,92.93
2023,92,28.55,1.57,0.78,53.62,21.52,22.5,34.95,92.86
2023,93,28.88,1.9,0.46,49.31,22.48,22.86,35.8,92.85
2023,94,27.24,1.32,5.75,61.62,15.83,22.13,33.11,92.98
2023,95,27.88,1.53,0.73,58.5,20.56,22.84,34.33,92.93
2023,96,28.27,1.99,0.09,50.5,22.39,21.28,35.51,92.96
2023,97,27.86,2.55,0.0,50.94,23.66,20.69,35.23,93.13
2023,98,27.6,3.24,0.0,49.56,26.93,19.49,35.83,93.28
2023,99,27.9,2.68,0.0,46.12,27.05,19.08,36.73,93.26
2023,100,28.27,2.78,0.0,48.0,26.45,19.85,37.18,93.15
2023,101,28.37,2.22,0.0,36.94,27.18,19.35,37.94,93.14
2023,102,27.89,2.11,0.0,33.06,27.74,20.37,36.51,93.13
2023,103,29.4,2.23,0.0,25.75,28.02,20.78,38.73,93.07
2023,104,28.69,2.12,0.0,28.38,26.21,21.97,36.33,93.09
2023,105,29.48,2.03,0.0,28.38,23.25,22.56,38.04,93.0
2023,106,28.68,2.26,0.0,33.94,26.76,21.94,36.98,92.91
2023,107,29.06,2.54,0.0,32.0,26.85,21.49,37.02,92.91
2023,108,29.39,2.3,0.0,35.44,27.3,20.06,38.64,93.01
2023,109,29.81,1.82,0.0,35.56,26.06,20.91,38.8,92.83
2023,110,31.24,1.3,0.0,36.12,25.37,22.9,38.8,92.61
2023,111,31.72,1.7,0.26,38.25,23.41,24.54,38.27,92.6
2023,112,30.76,1.66,3.06,45.69,21.22,25.16,36.48,92.66
2023,113,29.33,1.65,2.45,54.06,22.09,24.38,35.51,92.72
2023,114,28.3,2.95,0.6,55.31,22.8,23.44,34.83,92.84
2023,115,28.14,2.17,1.56,53.0,21.4,22.77,33.88,92.92
2023,116,28.3,2.41,0.04,54.12,19.68,23.48,34.73,92.9
2023,117,28.94,2.19,0.01,51.56,20.95,22.8,35.46,92.91
2023,118,29.61,2.76,0.03,46.94,22.6,22.48,36.86,92.94
2023,119,28.54,2.33,9.3,57.94,19.18,23.27,36.49,92.9
2023,120,27.52,1.95,3.06,65.56,21.07,22.67,33.7,92.79
2023,121,25.04,1.4,17.3,78.06,17.1,22.3,28.39,92.79
2023,122,25.88,1.23,6.14,73.94,21.14,21.93,31.69,92.84
2023,123,25.76,2.06,1.46,74.19,17.53,22.85,29.85,92.92
2023,124,25.64,1.03,7.15,73.06,19.49,22.13,30.91,92.91
2023,125,23.93,1.63,30.33,81.12,18.28,22.0,26.37,92.83
2023,126,23.86,1.24,6.84,84.5,18.13,21.4,27.58,92.78
2023,127,24.65,1.93,16.41,82.81,13.39,21.6,29.8,92.79
2023,128,24.51,1.34,8.79,83.5,16.54,21.74,28.65,92.78
2023,129,26.48,1.33,0.65,74.75,22.38,20.93,32.51,92.78
2023,130,27.33,1.58,0.2,69.06,23.28,21.38,33.74,92.74
2023,131,27.58,1.2,0.33,68.0,20.24,23.19,33.4,92.81
2023,132,28.19,1.43,3.51,67.81,19.2,22.34,34.8,92.85
2023,133,27.87,2.93,0.0,67.19,18.81,22.46,34.65,92.89
2023,134,28.12,2.92,0.0,67.0,24.12,23.26,34.69,92.82
2023,135,28.82,2.37,0.25,65.12,26.04,22.93,35.84,92.86
2023,136,29.64,2.05,0.28,57.69,25.89,21.81,36.55,92.94
2023,137,30.25,0.85,0.66,51.06,24.03,25.22,36.48,92.98
2023,138,29.74,1.37,0.09,57.31,21.18,22.61,37.05,93.04
2023,139,27.62,0.82,0.16,67.31,23.34,24.1,31.68,93.01
2023,140,28.4,1.67,2.08,65.31,23.65,22.9,34.12,92.93
2023,141,28.05,1.06,12.26,70.31,22.62,23.13,33.44,92.99
2023,142,27.94,1.43,3.46,67.88,22.6,22.73,34.04,93.03
2023,143,27.77,1.16,2.06,66.12,23.35,23.09,33.56,93.08
2023,144,26.38,1.72,1.22,71.44,23.88,21.74,32.15,93.1
2023,145,27.48,2.04,2.07,68.5,23.83,22.13,33.87,93.09
2023,146,27.1,2.24,5.11,69.31,24.04,23.11,32.74,93.13
2023,147,28.51,1.91,0.41,63.06,25.48,21.39,35.23,92.95
2023,148,28.07,1.67,0.11,63.69,23.73,23.15,33.56,92.87
2023,149,28.44,1.68,0.09,62.62,21.7,22.3,35.11,92.84
2023,150,27.11,1.44,7.64,70.44,19.64,23.28,33.49,92.95
2023,151,26.66,1.02,8.16,70.25,21.19,22.54,31.03,92.94
2023,152,26.93,1.91,4.06,68.88,21.22,21.35,32.65,92.87
2023,153,27.26,2.4,1.3,64.81,21.33,21.66,33.76,92.88
2023,154,28.69,2.34,0.03,63.81,22.69,22.45,35.11,92.81
2023,155,28.49,2.44,0.07,65.25,18.54,23.29,34.89,92.81
2023,156,26.63,2.44,0.03,72.25,23.08,22.93,31.89,92.82
2023,157,27.44,2.74,1.22,67.94,25.06,21.73,33.58,92.77
2023,158,27.58,3.12,0.91,67.12,23.98,22.4,33.76,92.74
2023,159,26.72,2.88,0.34,70.31,24.48,22.87,31.69,92.82
2023,160,27.12,3.37,4.16,66.94,24.57,22.15,33.54,92.71
2023,161,26.82,4.41,0.09,65.44,23.5,21.12,34.11,92.7
2023,162,27.24,3.84,0.02,64.88,20.85,21.11,34.74,92.67
2023,163,26.82,3.44,12.64,71.5,23.22,21.91,33.51,92.7
2023,164,27.25,3.49,0.48,68.62,24.15,21.76,33.89,92.73
2023,165,26.71,3.95,0.87,69.38,24.0,22.44,32.02,92.84
2023,166,27.89,3.52,0.07,64.81,23.41,21.84,35.28,92.83
2023,167,28.22,3.64,0.01,63.06,26.07,21.75,35.6,92.78
2023,168,27.23,3.27,0.02,67.0,21.88,22.8,32.56,92.78
2023,169,25.7,3.38,0.24,72.69,13.85,22.61,29.84,92.82
2023,170,25.61,2.92,1.75,72.0,14.59,21.36,31.65,92.74
2023,171,25.26,1.72,7.63,75.94,11.01,21.54,29.37,92.71
2023,172,25.09,1.39,13.52,76.25,13.74,21.4,28.64,92.76
2023,173,26.62,1.88,15.54,67.94,19.96,21.6,32.18,92.73
2023,174,25.23,3.09,7.92,69.44,19.68,21.04,31.57,92.76
2023,175,24.14,3.44,0.1,78.19,16.02,20.54,28.92,92.73
2023,176,24.51,2.72,0.77,79.19,19.38,21.34,28.98,92.73
2023,177,24.64,3.55,0.1,68.94,16.0,19.89,31.11,92.76
2023,178,25.1,3.52,0.45,68.94,18.19,19.85,32.12,92.82
2023,179,25.53,3.95,0.02,65.62,18.54,19.12,32.83,92.89
2023,180,25.79,3.84,5.72,68.5,16.84,20.08,33.41,92.94
2023,181,25.7,3.93,0.22,66.12,21.27,19.82,32.44,92.9
2023,182,25.37,3.67,1.41,67.5,20.08,20.83,31.9,92.94
2023,183,24.45,3.79,1.3,75.06,15.49,20.13,30.15,92.89
2023,184,24.63,4.0,3.23,77.12,17.97,21.27,29.33,92.75
2023,185,24.11,4.66,5.66,79.5,13.21,21.48,27.95,92.59
2023,186,23.62,4.98,1.23,77.44,13.86,20.84,27.44,92.53
2023,187,23.9,5.33,0.31,73.94,13.74,19.69,28.72,92.7
2023,188,24.53,3.97,1.96,75.81,15.31,20.04,30.3,92.85
2023,189,24.77,3.56,2.28,73.75,13.93,20.23,30.86,92.96
2023,190,25.34,3.2,1.15,72.44,16.21,19.94,31.64,92.87
2023,191,24.99,2.72,5.56,76.06,14.89,21.41,30.56,92.86
2023,192,25.12,3.8,10.65,69.75,12.43,21.06,31.31,92.83
2023,193,24.52,3.94,7.24,70.62,18.7,19.22,32.35,92.81
2023,194,24.66,3.64,6.92,71.81,16.32,18.73,32.13,92.85
2023,195,25.09,3.91,0.21,72.44,16.92,20.25,31.65,92.92
2023,196,25.21,3.6,0.52,71.88,19.16,20.34,31.05,92.9
2023,197,25.8,3.41,0.04,72.75,15.86,20.65,32.31,92.85
2023,198,25.35,3.99,0.01,74.38,18.18,20.94,30.67,92.81
2023,199,26.1,5.3,0.01,69.31,18.14,21.31,32.42,92.73
2023,200,25.36,6.34,0.09,70.69,15.0,21.69,30.59,92.61
2023,201,25.43,6.42,0.01,68.94,17.75,21.72,30.84,92.59
2023,202,24.94,6.44,0.04,74.19,14.9,21.98,29.42,92.68
2023,203,25.1,6.25,1.45,70.25,12.29,21.45,30.81,92.79
2023,204,24.87,5.34,3.23,73.88,11.81,20.7,30.9,92.84
2023,205,23.65,4.94,7.41,80.25,10.59,20.6,28.14,92.78
2023,206,22.75,4.53,10.56,82.81,9.43,20.12,26.69,92.86
2023,207,23.77,5.24,3.11,78.69,10.14,19.48,29.55,92.9
2023,208,23.62,5.62,0.04,75.75,15.7,19.97,28.98,92.96
2023,209,25.1,5.2,0.2,71.0,15.87,19.73,32.18,92.9
2023,210,25.66,5.14,0.05,70.25,16.27,20.08,33.09,92.88
2023,211,26.16,4.74,0.0,68.31,19.69,20.07,33.95,92.83
2023,212,26.37,4.59,0.0,68.81,18.0,20.75,33.48,92.8
2023,213,25.97,4.91,0.0,69.31,18.58,20.66,33.56,92.84
2023,214,25.64,4.97,0.0,68.94,19.59,20.16,32.44,92.9
2023,215,26.16,4.77,0.0,68.12,19.72,20.62,33.58,92.88
2023,216,26.14,4.36,0.18,69.0,18.72,20.06,33.56,93.01
2023,217,26.52,4.18,0.0,67.06,18.44,20.58,33.24,93.13
2023,218,26.44,3.34,0.3,69.19,20.62,21.02,33.11,93.01
2023,219,26.86,3.31,0.32,65.81,20.28,21.12,33.94,92.85
2023,220,26.51,2.82,0.02,66.75,18.9,20.68,33.28,92.89
2023,221,26.72,2.23,7.87,68.31,20.98,21.04,32.97,93.01
2023,222,25.41,1.84,12.06,76.0,19.97,22.22,28.91,93.04
2023,223,25.71,1.48,5.67,75.44,19.22,21.44,30.68,92.99
2023,224,25.2,2.07,0.96,74.56,15.55,21.69,29.51,92.98
2023,225,25.81,2.56,0.09,69.88,20.76,21.01,31.91,92.92
2023,226,26.12,2.3,0.01,67.56,20.08,21.12,32.4,92.94
2023,227,25.96,2.16,0.24,67.81,24.64,20.33,31.87,92.96
2023,228,26.87,2.43,0.17,66.19,25.29,20.75,33.79,92.97
2023,229,26.93,3.42,0.0,64.88,22.45,21.58,33.15,92.95
2023,230,25.97,4.09,0.0,67.12,17.96,20.91,32.44,92.87
2023,231,25.94,4.23,2.1,68.44,15.59,20.53,33.43,92.81
2023,232,26.71,3.45,0.27,67.12,19.06,21.14,33.95,92.77
2023,233,27.18,2.85,0.11,64.12,23.29,20.55,34.77,92.74
2023,234,26.8,1.34,0.89,68.56,19.48,22.16,31.58,92.79
2023,235,26.79,1.59,0.57,67.06,20.8,22.3,32.32,92.81
2023,236,27.01,2.41,0.12,64.06,21.95,22.03,33.26,92.78
2023,237,27.31,2.17,0.0,63.06,23.76,21.42,33.79,92.81
2023,238,26.19,2.09,2.76,69.81,22.74,22.46,31.15,92.93
2023,239,26.05,1.7,8.44,73.12,19.79,21.57,30.73,92.98
2023,240,26.47,2.23,0.37,66.75,23.47,21.52,33.5,92.91
2023,241,26.62,2.05,1.4,67.06,20.31,21.26,32.86,92.82
2023,242,26.93,2.29,9.89,69.94,23.45,21.36,34.19,92.82
2023,243,25.11,1.66,23.88,77.38,18.51,21.69,29.52,92.86
2023,244,23.96,1.76,30.08,87.0,21.8,22.29,26.98,92.9
2023,245,24.08,2.41,10.62,83.19,19.1,21.85,28.08,92.88
2023,246,23.87,2.54,2.58,81.19,20.01,20.9,28.42,92.78
2023,247,23.04,3.7,0.38,79.0,15.07,20.23,27.39,92.67
2023,248,23.88,3.2,10.32,80.31,14.98,19.55,30.1,92.65
2023,249,23.62,2.71,3.14,81.12,16.56,20.23,29.12,92.75
2023,250,23.3,3.03,3.81,78.12,17.59,20.01,28.58,92.83
2023,251,23.89,3.45,0.53,76.62,17.75,19.73,29.55,92.88
2023,252,24.55,3.26,2.98,76.88,21.94,20.31,29.94,92.84
2023,253,24.48,3.1,0.66,79.19,19.54,21.04,29.23,92.79
2023,254,23.99,3.53,1.73,79.88,16.61,20.5,29.65,92.85
2023,255,24.17,3.01,2.54,78.06,19.93,19.47,30.22,92.86
2023,256,24.88,3.48,2.91,73.62,19.54,19.96,32.33,92.85
2023,257,24.82,3.35,1.16,74.62,16.48,20.12,31.94,92.85
2023,258,23.68,3.34,0.17,75.81,16.56,18.91,29.33,92.91
2023,259,24.63,3.23,9.07,77.31,16.29,20.77,30.73,92.92
2023,260,24.91,2.64,15.1,79.25,17.11,20.54,30.87,92.83
2023,261,24.83,2.71,11.79,79.38,18.4,20.38,30.79,92.82
2023,262,25.08,2.55,4.54,78.94,22.67,20.92,30.25,92.91
2023,263,24.05,2.18,11.56,82.88,20.23,20.59,28.8,92.96
2023,264,22.87,1.38,21.23,86.81,17.28,20.74,25.29,92.99
2023,265,24.62,1.25,1.34,83.06,20.79,20.46,28.76,92.94
2023,266,24.36,1.76,1.3,85.81,21.34,22.1,28.12,92.93
2023,267,23.51,2.13,12.18,87.62,20.86,20.86,27.45,92.94
2023,268,22.75,2.41,2.05,87.88,17.62,20.55,25.41,92.88
2023,269,24.26,1.96,4.51,81.88,20.07,20.18,29.68,92.83
2023,270,24.2,2.75,1.85,78.06,18.45,20.14,30.27,92.84
2023,271,22.87,2.38,2.48,85.44,16.02,18.72,27.4,92.86
2023,272,23.29,2.53,0.61,83.75,16.61,19.95,28.04,92.85
2023,273,23.21,3.15,1.69,78.0,14.95,18.69,29.82,92.94
2023,274,23.64,3.15,0.35,81.44,15.58,19.75,29.64,92.87
2023,275,23.94,2.98,1.04,79.88,19.05,19.81,30.3,92.94
2023,276,24.23,2.37,0.0,76.06,22.44,19.34,30.8,93.0
2023,277,24.55,1.55,0.08,74.31,22.88,19.94,29.91,93.03
2023,278,24.34,1.8,0.19,80.5,21.74,19.79,29.98,92.99
2023,279,24.4,1.45,0.9,78.31,17.58,20.46,28.77,92.95
2023,280,24.93,1.11,6.79,79.12,16.03,19.84,30.74,92.95
2023,281,25.78,0.76,1.96,72.88,15.49,21.74,30.61,93.06
2023,282,25.09,0.89,10.8,83.12,15.71,21.31,29.4,93.16
2023,283,24.66,0.7,14.85,87.25,17.88,22.6,28.15,93.12
2023,284,23.19,1.74,7.52,91.0,15.27,21.44,25.73,93.09
2023,285,23.79,1.84,0.25,80.62,17.53,19.64,29.69,93.17
2023,286,23.39,1.59,0.31,73.12,23.09,18.37,30.55,93.26
2023,287,23.36,1.36,2.19,78.25,19.79,18.12,29.48,93.25
2023,288,24.12,1.41,3.7,79.62,18.56,20.37,29.5,93.1
2023,289,23.65,1.57,17.53,86.62,16.77,19.67,28.69,93.12
2023,290,23.89,1.02,0.49,82.44,18.81,20.87,27.83,93.2
2023,291,23.66,1.45,0.57,80.81,20.57,19.83,28.94,93.28
2023,292,23.79,1.55,0.05,75.56,19.53,19.01,29.74,93.25
2023,293,24.08,1.59,0.04,77.81,21.45,19.3,30.28,93.24
2023,294,24.21,1.71,0.03,77.88,18.87,19.05,30.73,93.26
2023,295,24.8,1.5,0.01,73.88,19.16,19.61,30.7,93.26
2023,296,24.37,1.37,0.0,65.56,19.11,19.4,30.54,93.19
2023,297,23.82,1.05,0.0,57.5,22.21,17.42,31.16,93.15
2023,298,24.19,0.95,0.0,69.5,22.05,18.51,31.03,93.24
2023,299,24.01,1.23,0.0,69.38,20.99,18.63,30.92,93.26
2023,300,24.22,1.64,0.0,72.19,19.48,18.84,31.15,93.16
2023,301,24.45,1.68,0.03,76.19,18.23,20.3,30.19,93.14
2023,302,23.83,1.78,2.31,81.69,16.81,20.34,28.6,93.16
2023,303,22.37,1.81,5.17,87.31,14.96,20.05,26.03,93.17
2023,304,22.78,1.44,1.27,82.25,14.79,19.04,27.5,93.22
2023,305,24.11,1.46,0.49,75.75,16.73,19.5,30.01,93.2
2023,306,24.63,1.69,0.2,78.5,16.51,20.71,30.56,93.12
2023,307,24.92,2.0,1.83,77.25,17.92,20.3,31.94,93.01
2023,308,23.66,1.41,10.49,83.75,14.45,20.45,27.98,92.99
2023,309,23.33,2.52,2.57,84.25,15.55,20.65,28.5,93.12
2023,310,23.0,0.73,14.29,84.0,16.04,19.98,27.3,93.27
2023,311,22.99,1.34,19.88,90.12,15.34,20.78,26.18,93.19
2023,312,23.65,1.38,2.51,84.75,14.66,20.27,28.25,93.19
2023,313,22.22,1.83,4.6,84.5,14.68,19.66,25.08,93.28
2023,314,22.54,1.76,1.2,82.94,15.06,17.76,28.08,93.36
2023,315,22.83,2.05,0.0,75.31,21.02,19.09,28.64,93.37
2023,316,21.76,2.13,0.0,77.44,19.1,16.97,28.46,93.37
2023,317,22.33,2.08,0.06,79.06,19.36,16.48,29.34,93.31
2023,318,21.51,2.16,1.01,77.94,10.0,18.5,26.13,93.25
2023,319,22.81,1.52,0.04,79.44,16.18,17.55,29.11,93.18
2023,320,23.98,1.09,0.0,74.06,16.01,18.33,30.5,93.2
2023,321,24.36,1.38,0.0,75.12,16.85,20.29,30.86,93.21
2023,322,24.65,2.14,0.0,72.94,17.36,19.14,31.67,93.2
2023,323,24.08,2.7,0.0,73.31,20.51,19.24,30.38,93.21
2023,324,23.84,2.11,0.0,75.56,19.41,18.87,30.58,93.19
2023,325,24.39,2.09,0.25,79.5,15.78,19.69,30.51,93.1
2023,326,24.26,2.09,6.95,84.75,12.95,21.2,29.48,93.06
2023,327,23.48,2.46,2.16,80.62,12.43,20.25,29.33,93.02
2023,328,23.86,2.02,2.23,82.25,14.11,20.09,29.71,93.06
2023,329,23.8,2.31,1.47,81.62,13.07,20.4,29.15,93.19
2023,330,23.35,2.94,1.04,79.31,14.87,18.93,29.73,93.26
2023,331,23.94,2.37,0.6,77.12,17.26,19.39,30.71,93.18
2023,332,24.19,2.11,0.45,77.25,16.04,18.8,30.47,93.05
2023,333,23.67,2.16,2.41,79.81,14.52,20.11,29.65,93.07
2023,334,23.3,2.07,1.39,80.5,12.31,18.83,29.29,93.15
2023,335,23.86,1.71,0.33,77.0,10.58,18.77,30.36,93.08
2023,336,24.13,2.43,2.45,75.81,15.07,18.05,31.64,92.96
2023,337,24.01,2.77,3.11,82.19,10.45,19.65,30.21,92.9
2023,338,23.83,3.09,1.91,77.62,7.3,19.8,30.64,92.78
2023,339,24.67,2.32,0.27,69.38,14.13,19.26,31.62,92.76
2023,340,24.69,1.14,0.15,70.38,17.45,18.03,32.04,92.94
2023,341,25.26,0.83,1.0,74.81,15.78,19.83,32.24,93.03
2023,342,23.79,1.3,1.14,85.06,12.39,21.87,26.85,93.08
2023,343,23.13,2.02,0.84,81.12,11.75,20.01,27.23,93.19
2023,344,24.08,2.13,0.28,71.5,15.59,18.83,31.49,93.15
2023,345,23.67,1.41,0.13,71.94,14.91,18.7,29.85,93.17
2023,346,23.33,1.69,0.09,71.06,14.03,18.5,30.23,93.1
2023,347,22.45,1.92,0.0,69.44,15.9,17.4,30.23,93.14
2023,348,21.83,2.07,0.0,68.44,17.18,16.09,29.87,93.26
2023,349,22.98,2.19,0.24,75.94,15.21,16.34,30.72,93.26
2023,350,24.15,2.85,0.65,77.19,13.13,19.1,31.82,93.17
2023,351,23.01,3.02,0.41,77.44,9.38,19.62,28.5,93.19
2023,352,22.55,3.02,0.17,76.88,8.87,19.26,28.39,93.27
2023,353,22.2,2.91,0.03,70.38,18.56,18.19,28.95,93.32
2023,354,22.58,2.47,0.0,70.25,12.89,17.01,30.98,93.32
2023,355,23.29,2.08,0.04,73.56,15.14,17.3,30.86,93.3
2023,356,23.77,1.52,0.0,68.94,16.35,18.36,32.14,93.28
2023,357,20.82,1.85,0.0,67.38,17.15,15.55,28.95,93.39
2023,358,21.67,2.19,0.0,72.62,19.73,14.52,30.15,93.47
2023,359,23.33,2.64,0.09,72.0,13.53,17.9,31.86,93.4
2023,360,21.85,2.46,0.01,66.06,21.34,14.64,31.26,93.41
2023,361,21.79,2.44,0.0,66.5,21.8,15.65,31.73,93.43
2023,362,22.66,2.86,0.01,72.81,16.84,15.51,31.46,93.35
2023,363,23.25,2.78,0.04,72.19,12.71,17.18,31.23,93.37
2023,364,22.82,2.45,0.06,67.62,18.64,17.83,31.15,93.32
2023,365,21.82,2.29,0.0,67.44,19.0,15.37,30.89,93.31
